	CoarseC0	CoarseC10	CoarseC20	CoarseC30	CoarseC40	CoarseC50	CoarseC60	CoarseC70	CoarseC80	CoarseC90	CoarseC100	CoarseC110	CoarseC120	CoarseC130	CoarseC140	CoarseC150	CoarseC160	CoarseC170	CoarseC180	CoarseC190	CoarseC200	CoarseC210	CoarseC220	CoarseC230	CoarseC240	CoarseC250	
CoarseR0	-1.19164e-009	-1.14551e-009	-1.10127e-009	-1.06377e-009	-1.03228e-009	-1.00561e-009	-9.82903e-010	-9.63314e-010	-9.4672e-010	-9.32002e-010	-9.19411e-010	-9.08148e-010	-8.98446e-010	-8.90052e-010	-8.82669e-010	-8.76043e-010	-8.703e-010	-8.6534e-010	-8.60911e-010	-8.5709e-010	-8.53874e-010	-8.51131e-010	-8.48426e-010	-8.46556e-010	-8.44847e-010	-8.43191e-010	
CoarseR10	-8.86627e-010	-8.37864e-010	-7.96997e-010	-7.62658e-010	-7.33338e-010	-7.08466e-010	-6.87117e-010	-6.68629e-010	-6.52738e-010	-6.38854e-010	-6.26687e-010	-6.16072e-010	-6.06627e-010	-5.98592e-010	-5.91453e-010	-5.85061e-010	-5.79649e-010	-5.74997e-010	-5.70929e-010	-5.67585e-010	-5.64895e-010	-5.6271e-010	-5.61137e-010	-5.59709e-010	-5.58905e-010	-5.5821e-010	
CoarseR20	-6.93996e-010	-6.44485e-010	-6.05792e-010	-5.73486e-010	-5.45979e-010	-5.22591e-010	-5.02192e-010	-4.84656e-010	-4.69575e-010	-4.56172e-010	-4.44822e-010	-4.34709e-010	-4.25731e-010	-4.18363e-010	-4.11735e-010	-4.06173e-010	-4.01678e-010	-3.97657e-010	-3.94432e-010	-3.91748e-010	-3.89649e-010	-3.88023e-010	-3.86619e-010	-3.85827e-010	-3.85651e-010	-3.85402e-010	
CoarseR30	-5.58398e-010	-5.10493e-010	-4.73798e-010	-4.43208e-010	-4.16758e-010	-3.94389e-010	-3.75077e-010	-3.5813e-010	-3.4383e-010	-3.31151e-010	-3.20462e-010	-3.11092e-010	-3.0319e-010	-2.96267e-010	-2.90332e-010	-2.85239e-010	-2.81035e-010	-2.7783e-010	-2.74986e-010	-2.72794e-010	-2.71102e-010	-2.70036e-010	-2.69513e-010	-2.69357e-010	-2.69718e-010	-2.70325e-010	
CoarseR40	-4.59643e-010	-4.1283e-010	-3.77561e-010	-3.47928e-010	-3.22916e-010	-3.01346e-010	-2.82809e-010	-2.66824e-010	-2.53225e-010	-2.41404e-010	-2.31153e-010	-2.22359e-010	-2.14852e-010	-2.08632e-010	-2.03279e-010	-1.98753e-010	-1.94892e-010	-1.92263e-010	-1.89974e-010	-1.88397e-010	-1.87406e-010	-1.87098e-010	-1.8721e-010	-1.87769e-010	-1.89032e-010	-1.90573e-010	
CoarseR50	-3.83657e-010	-3.37864e-010	-3.04031e-010	-2.755e-010	-2.50973e-010	-2.30319e-010	-2.12598e-010	-1.9733e-010	-1.84257e-010	-1.72932e-010	-1.63225e-010	-1.54935e-010	-1.48101e-010	-1.42227e-010	-1.37362e-010	-1.33325e-010	-1.30309e-010	-1.28123e-010	-1.26478e-010	-1.2574e-010	-1.25501e-010	-1.25887e-010	-1.26801e-010	-1.28587e-010	-1.30773e-010	-1.33388e-010	
CoarseR60	-3.22707e-010	-2.7856e-010	-2.4541e-010	-2.17656e-010	-1.94013e-010	-1.7387e-010	-1.56641e-010	-1.41995e-010	-1.29376e-010	-1.18692e-010	-1.0958e-010	-1.01762e-010	-9.523e-011	-9.00147e-011	-8.57634e-011	-8.23758e-011	-7.98169e-011	-7.82837e-011	-7.74635e-011	-7.73576e-011	-7.8082e-011	-7.94071e-011	-8.14236e-011	-8.42814e-011	-8.77155e-011	-9.20286e-011	
CoarseR70	-2.73139e-010	-2.29704e-010	-1.97424e-010	-1.70505e-010	-1.47483e-010	-1.28091e-010	-1.11296e-010	-9.72235e-011	-8.51861e-011	-7.47919e-011	-6.61077e-011	-5.88848e-011	-5.2824e-011	-4.80604e-011	-4.42885e-011	-4.15466e-011	-3.97833e-011	-3.88816e-011	-3.8879e-011	-3.95479e-011	-4.12484e-011	-4.38242e-011	-4.71132e-011	-5.15654e-011	-5.72672e-011	-6.49957e-011	
CoarseR80	-2.31441e-010	-1.89142e-010	-1.57501e-010	-1.31115e-010	-1.08991e-010	-8.99914e-011	-7.38886e-011	-5.98842e-011	-4.82971e-011	-3.84447e-011	-3.03738e-011	-2.33032e-011	-1.79896e-011	-1.36689e-011	-1.03808e-011	-8.25993e-012	-7.15303e-012	-7.07164e-012	-7.87082e-012	-9.67507e-012	-1.25155e-011	-1.66918e-011	-2.19761e-011	-2.98999e-011	-3.83692e-011	-4.6046e-011	
CoarseR90	-1.95946e-010	-1.54319e-010	-1.23355e-010	-9.76597e-011	-7.55927e-011	-5.7247e-011	-4.13766e-011	-2.80991e-011	-1.67376e-011	-7.35011e-012	4.59602e-013	6.78059e-012	1.1792e-011	1.5458e-011	1.81138e-011	1.95927e-011	1.98696e-011	1.9129e-011	1.73565e-011	1.42524e-011	9.64632e-012	2.80678e-012	-5.80142e-012	-1.42404e-011	-2.27645e-011	-3.10109e-011	
CoarseR100	-1.65233e-010	-1.24478e-010	-9.41644e-011	-6.86531e-011	-4.7063e-011	-2.9083e-011	-1.36091e-011	-5.57764e-013	1.00613e-011	1.93575e-011	2.67163e-011	3.25869e-011	3.71206e-011	4.03224e-011	4.23174e-011	4.29697e-011	4.24284e-011	4.06669e-011	3.74099e-011	3.2537e-011	2.44351e-011	1.56556e-011	6.99301e-012	-1.78599e-012	-9.91617e-012	-1.74623e-011	
CoarseR110	-1.38507e-010	-9.83652e-011	-6.84118e-011	-4.35088e-011	-2.22592e-011	-4.4804e-012	1.06216e-011	2.34419e-011	3.38027e-011	4.24996e-011	4.956e-011	5.49686e-011	5.90359e-011	6.15628e-011	6.29002e-011	6.30456e-011	6.14617e-011	5.83862e-011	5.33891e-011	4.45268e-011	3.54518e-011	2.63898e-011	1.7674e-011	9.45066e-012	1.70712e-012	-5.42919e-012	
CoarseR120	-1.14751e-010	-7.52661e-011	-4.55934e-011	-2.08895e-011	-1.46503e-013	1.72492e-011	3.19488e-011	4.45236e-011	5.46514e-011	6.30799e-011	6.98645e-011	7.47802e-011	7.83319e-011	8.03657e-011	8.10357e-011	8.01264e-011	7.73848e-011	7.25276e-011	6.33585e-011	5.44892e-011	4.49993e-011	3.60161e-011	2.77427e-011	1.99233e-011	1.26088e-011	5.95458e-012	
CoarseR130	-9.37289e-011	-5.46658e-011	-2.56248e-011	-1.21485e-012	1.93158e-011	3.65156e-011	5.11565e-011	6.33274e-011	7.33512e-011	8.14752e-011	8.76376e-011	9.22054e-011	9.52669e-011	9.6801e-011	9.64068e-011	9.44857e-011	9.02444e-011	8.15641e-011	7.2374e-011	6.26111e-011	5.35692e-011	4.51865e-011	3.71862e-011	2.96615e-011	2.26601e-011	1.63427e-011	
CoarseR140	-7.47626e-011	-3.61022e-011	-7.21777e-012	1.66918e-011	3.70367e-011	5.41768e-011	6.86153e-011	8.04958e-011	9.00685e-011	9.79106e-011	1.03899e-010	1.08151e-010	1.10524e-010	1.11372e-010	1.10292e-010	1.06653e-010	9.88096e-011	8.96242e-011	7.97578e-011	7.04475e-011	6.18541e-011	5.36312e-011	4.6266e-011	3.90748e-011	3.24211e-011	2.61217e-011	
CoarseR150	-5.80541e-011	-1.96906e-011	9.09426e-012	3.30034e-011	5.31499e-011	7.00757e-011	8.42592e-011	9.60633e-011	1.0552e-010	1.12885e-010	1.18533e-010	1.22285e-010	1.24145e-010	1.24086e-010	1.21996e-010	1.1575e-010	1.06382e-010	9.66751e-011	8.69474e-011	7.81038e-011	6.96387e-011	6.19222e-011	5.45543e-011	4.77467e-011	4.12794e-011	3.51762e-011	
CoarseR160	-4.2736e-011	-4.60515e-012	2.38969e-011	4.76333e-011	6.76124e-011	8.44762e-011	9.83775e-011	1.09899e-010	1.19246e-010	1.26445e-010	1.3177e-010	1.35017e-010	1.3633e-010	1.35401e-010	1.31784e-010	1.22867e-010	1.13124e-010	1.03266e-010	9.40067e-011	8.53394e-011	7.74261e-011	6.98821e-011	6.27242e-011	5.61175e-011	4.98792e-011	4.39714e-011	
CoarseR170	-2.87747e-011	9.13372e-012	3.7477e-011	6.12093e-011	8.09865e-011	9.76131e-011	1.11461e-010	1.2285e-010	1.31883e-010	1.38948e-010	1.43943e-010	1.46816e-010	1.4744e-010	1.45645e-010	1.38945e-010	1.29403e-010	1.19238e-010	1.09913e-010	1.00839e-010	9.27027e-011	8.47938e-011	7.74293e-011	7.04971e-011	6.41246e-011	5.80923e-011	5.26447e-011	
CoarseR180	-1.60341e-011	2.15661e-011	4.99195e-011	7.35037e-011	9.34351e-011	1.09967e-010	1.23707e-010	1.35007e-010	1.43878e-010	1.50649e-010	1.55118e-010	1.57478e-010	1.57532e-010	1.54401e-010	1.45432e-010	1.35352e-010	1.25376e-010	1.16204e-010	1.07479e-010	9.9541e-011	9.18619e-011	8.4915e-011	7.82024e-011	7.18797e-011	6.59507e-011	6.05789e-011	
CoarseR190	-4.48891e-012	3.32184e-011	6.13922e-011	8.4969e-011	1.04663e-010	1.21329e-010	1.34987e-010	1.46158e-010	1.54902e-010	1.61475e-010	1.65621e-010	1.67245e-010	1.66608e-010	1.60828e-010	1.51436e-010	1.40954e-010	1.31507e-010	1.22547e-010	1.13994e-010	1.06305e-010	9.88397e-011	9.21484e-011	8.54967e-011	7.9421e-011	7.37628e-011	6.84751e-011	
CoarseR200	6.3708e-012	4.37533e-011	7.19714e-011	9.53665e-011	1.15171e-010	1.31772e-010	1.45329e-010	1.56369e-010	1.64966e-010	1.71215e-010	1.74983e-010	1.76469e-010	1.74769e-010	1.66689e-010	1.56755e-010	1.46807e-010	1.37392e-010	1.28636e-010	1.20542e-010	1.12853e-010	1.05664e-010	9.90361e-011	9.26355e-011	8.68442e-011	8.10847e-011	7.59053e-011	
CoarseR210	1.60978e-011	5.35015e-011	8.16138e-011	1.05132e-010	1.249e-010	1.41262e-010	1.54887e-010	1.65794e-010	1.74285e-010	1.80343e-010	1.8377e-010	1.84681e-010	1.81407e-010	1.72476e-010	1.62146e-010	1.522e-010	1.43215e-010	1.34687e-010	1.26623e-010	1.19229e-010	1.12264e-010	1.05718e-010	9.96067e-011	9.39028e-011	8.82629e-011	8.31821e-011	
CoarseR220	2.50238e-011	6.2414e-011	9.0673e-011	1.13982e-010	1.33892e-010	1.50311e-010	1.63843e-010	1.74838e-010	1.82964e-010	1.8887e-010	1.92163e-010	1.92384e-010	1.87051e-010	1.77904e-010	1.6746e-010	1.57944e-010	1.48951e-010	1.4068e-010	1.32715e-010	1.25539e-010	1.18688e-010	1.12237e-010	1.06213e-010	1.00618e-010	9.50606e-011	9.02954e-011	
CoarseR230	3.34129e-011	7.07758e-011	9.88947e-011	1.2239e-010	1.42242e-010	1.58598e-010	1.7217e-010	1.83069e-010	1.91235e-010	1.96825e-010	1.99912e-010	1.99638e-010	1.92623e-010	1.82709e-010	1.72839e-010	1.63387e-010	1.54656e-010	1.46625e-010	1.38725e-010	1.31885e-010	1.25084e-010	1.18732e-010	1.12648e-010	1.07151e-010	1.01928e-010	9.70884e-011	
CoarseR240	4.07564e-011	7.83897e-011	1.06518e-010	1.30121e-010	1.49908e-010	1.66541e-010	1.80028e-010	1.90964e-010	1.98986e-010	2.04428e-010	2.07181e-010	2.06212e-010	1.97833e-010	1.879e-010	1.77924e-010	1.68689e-010	1.60073e-010	1.52313e-010	1.44684e-010	1.37743e-010	1.31214e-010	1.24989e-010	1.19206e-010	1.1364e-010	1.08343e-010	1.03648e-010	
CoarseR250	4.79769e-011	8.5476e-011	1.13783e-010	1.37386e-010	1.57132e-010	1.73689e-010	1.87417e-010	1.98171e-010	2.06084e-010	2.11569e-010	2.13821e-010	2.11735e-010	2.02801e-010	1.92595e-010	1.8307e-010	1.74086e-010	1.65743e-010	1.57885e-010	1.5032e-010	1.43651e-010	1.37096e-010	1.30956e-010	1.25311e-010	1.19906e-010	1.14722e-010	1.09959e-010	
MinCout:	-1.46503e-013	CoarseR:	120	CoarseC:	40

	CoarseC40	CoarseC41	CoarseC42	CoarseC43	CoarseC44	CoarseC45	CoarseC46	CoarseC47	CoarseC48	CoarseC49	CoarseC50	CoarseC51	CoarseC52	CoarseC53	CoarseC54	CoarseC55	CoarseC56	CoarseC57	CoarseC58	CoarseC59	CoarseC60	
CoarseR100	-4.72224e-011	-4.53002e-011	-4.3398e-011	-4.14985e-011	-3.95919e-011	-3.78256e-011	-3.59614e-011	-3.40268e-011	-3.2457e-011	-3.08434e-011	-2.91073e-011	-2.75102e-011	-2.5911e-011	-2.433e-011	-2.24249e-011	-2.11214e-011	-1.95339e-011	-1.80835e-011	-1.6494e-011	-1.50658e-011	-1.36091e-011	
CoarseR101	-4.46475e-011	-4.26152e-011	-4.06912e-011	-3.87919e-011	-3.70452e-011	-3.52763e-011	-3.33915e-011	-3.16384e-011	-2.9889e-011	-2.81353e-011	-2.65411e-011	-2.49448e-011	-2.33465e-011	-2.16039e-011	-2.00215e-011	-1.85596e-011	-1.69755e-011	-1.55458e-011	-1.39546e-011	-1.26667e-011	-1.1073e-011	
CoarseR102	-4.19472e-011	-4.00482e-011	-3.8125e-011	-3.62261e-011	-3.44806e-011	-3.25769e-011	-3.0852e-011	-2.89396e-011	-2.73288e-011	-2.57373e-011	-2.39808e-011	-2.22467e-011	-2.06487e-011	-1.9046e-011	-1.74668e-011	-1.61651e-011	-1.46015e-011	-1.29931e-011	-1.14025e-011	-1.01349e-011	-8.6799e-012	
CoarseR103	-3.97078e-011	-3.74889e-011	-3.57527e-011	-3.38275e-011	-3.19005e-011	-3.01582e-011	-2.84343e-011	-2.65226e-011	-2.49094e-011	-2.3181e-011	-2.14487e-011	-1.98534e-011	-1.82559e-011	-1.66564e-011	-1.49125e-011	-1.36337e-011	-1.20278e-011	-1.044e-011	-9.01369e-012	-7.54183e-012	-6.29268e-012	
CoarseR104	-3.69508e-011	-3.50532e-011	-3.31572e-011	-3.1255e-011	-2.93286e-011	-2.77472e-011	-2.58386e-011	-2.40914e-011	-2.21811e-011	-2.05909e-011	-1.90197e-011	-1.74251e-011	-1.58284e-011	-1.42297e-011	-1.23262e-011	-1.10261e-011	-9.46347e-012	-8.18009e-012	-6.59104e-012	-4.98076e-012	-3.69176e-012	
CoarseR105	-3.45228e-011	-3.24919e-011	-3.07303e-011	-2.88063e-011	-2.69028e-011	-2.51388e-011	-2.32556e-011	-2.15068e-011	-1.97577e-011	-1.81681e-011	-1.65764e-011	-1.50039e-011	-1.34078e-011	-1.1628e-011	-9.90804e-012	-8.62933e-012	-7.02475e-012	-5.41814e-012	-4.0148e-012	-2.54437e-012	-1.2971e-012	
CoarseR106	-3.19238e-011	-3.00272e-011	-2.81057e-011	-2.62049e-011	-2.44657e-011	-2.27244e-011	-2.07946e-011	-1.9071e-011	-1.73223e-011	-1.55721e-011	-1.3981e-011	-1.23877e-011	-1.07923e-011	-9.21601e-012	-7.43107e-012	-6.01557e-012	-4.43231e-012	-3.1509e-012	-1.56332e-012	-2.98983e-013	1.31337e-012	
CoarseR107	-2.94635e-011	-2.75679e-011	-2.5673e-011	-2.37727e-011	-2.20092e-011	-2.02683e-011	-1.83615e-011	-1.66161e-011	-1.48905e-011	-1.32804e-011	-1.17117e-011	-9.95775e-012	-8.50302e-012	-6.60328e-012	-5.02534e-012	-3.74949e-012	-2.14614e-012	-7.25279e-013	6.99977e-013	2.14553e-012	3.5959e-012	
CoarseR108	-2.70392e-011	-2.49602e-011	-2.32005e-011	-2.14884e-011	-1.95637e-011	-1.78231e-011	-1.60787e-011	-1.41703e-011	-1.26087e-011	-1.08592e-011	-9.0619e-012	-7.67723e-012	-6.06062e-012	-4.30161e-012	-2.74645e-012	-1.28797e-012	2.93553e-013	1.57284e-012	3.1795e-012	4.44194e-012	6.03265e-012	
CoarseR109	-2.4739e-011	-2.28444e-011	-2.09243e-011	-1.90253e-011	-1.72873e-011	-1.55232e-011	-1.36419e-011	-1.18971e-011	-1.0311e-011	-8.53989e-012	-6.81054e-012	-5.21918e-012	-3.76686e-012	-2.03007e-012	-4.32331e-013	9.82564e-013	2.58461e-012	3.84181e-012	5.4274e-012	6.7305e-012	8.32075e-012	
CoarseR110	-2.22592e-011	-2.03678e-011	-1.84718e-011	-1.67127e-011	-1.48138e-011	-1.30496e-011	-1.13312e-011	-9.44755e-012	-7.83975e-012	-6.25343e-012	-4.50259e-012	-2.91196e-012	-1.48218e-012	2.75729e-013	1.85116e-012	3.28707e-012	4.88844e-012	6.14446e-012	7.74999e-012	9.01083e-012	1.06007e-011	
CoarseR111	-2.01181e-011	-1.82014e-011	-1.62827e-011	-1.44104e-011	-1.26501e-011	-1.09109e-011	-9.03054e-012	-7.10096e-012	-5.51761e-012	-3.93207e-012	-2.34434e-012	-5.91795e-013	1.00025e-012	2.57252e-012	4.169e-012	5.6256e-012	7.18363e-012	8.45996e-012	1.00445e-011	1.13248e-011	1.27495e-011	
CoarseR112	-1.77773e-011	-1.57244e-011	-1.39922e-011	-1.20717e-011	-1.01736e-011	-8.5736e-012	-6.69392e-012	-4.94999e-012	-3.20519e-012	-1.62029e-012	1.29778e-013	1.71904e-012	3.14735e-012	4.74075e-012	6.45662e-012	7.913e-012	9.34918e-012	1.09512e-011	1.2351e-011	1.37946e-011	1.50758e-011	
CoarseR113	-1.54489e-011	-1.35575e-011	-1.16887e-011	-9.90603e-012	-8.03209e-012	-6.43288e-012	-4.55369e-012	-2.64841e-012	-1.04326e-012	7.04134e-013	2.29043e-012	3.85638e-012	5.44721e-012	7.04021e-012	8.61328e-012	1.00689e-011	1.14835e-011	1.30851e-011	1.45055e-011	1.5947e-011	1.72075e-011	
CoarseR114	-1.32937e-011	-1.13787e-011	-9.51064e-012	-7.59111e-012	-5.85532e-012	-4.11914e-012	-2.37858e-012	-4.97078e-013	1.10728e-012	2.87728e-012	4.46278e-012	6.02779e-012	7.61784e-012	9.04662e-012	1.07822e-011	1.22165e-011	1.36512e-011	1.5252e-011	1.66499e-011	1.81123e-011	1.9372e-011	
CoarseR115	-1.11269e-011	-9.23752e-012	-7.3207e-012	-5.45031e-012	-3.69061e-012	-1.93139e-012	-1.91631e-013	1.6892e-012	3.26987e-012	4.85279e-012	6.62391e-012	8.21096e-012	9.63691e-012	1.13705e-011	1.27782e-011	1.42327e-011	1.58084e-011	1.73886e-011	1.88266e-011	2.02698e-011	2.15264e-011	
CoarseR116	-8.92361e-012	-6.87377e-012	-5.1432e-012	-3.24912e-012	-1.49017e-012	4.32323e-013	2.30985e-012	3.88739e-012	5.63141e-012	7.21347e-012	8.77459e-012	1.05485e-011	1.19738e-011	1.35418e-011	1.51331e-011	1.64246e-011	1.79994e-011	1.95789e-011	2.10162e-011	2.22719e-011	2.37156e-011	
CoarseR117	-6.5974e-012	-4.86966e-012	-2.95396e-012	-1.03621e-012	6.73761e-013	2.43457e-012	4.17022e-012	6.07378e-012	7.79374e-012	9.42087e-012	1.09823e-011	1.25682e-011	1.39928e-011	1.556e-011	1.73169e-011	1.85853e-011	2.01596e-011	2.16141e-011	2.31536e-011	2.44502e-011	2.59126e-011	
CoarseR118	-4.36992e-012	-2.48187e-012	-7.52916e-013	1.16426e-012	2.89802e-012	4.46922e-012	6.36873e-012	8.27191e-012	9.85027e-012	1.14548e-011	1.30372e-011	1.46004e-011	1.62087e-011	1.79186e-011	1.95104e-011	2.07984e-011	2.23517e-011	2.37856e-011	2.52213e-011	2.66401e-011	2.80799e-011	
CoarseR119	-2.34619e-012	-4.5899e-013	1.29409e-012	3.18666e-012	4.919e-012	6.51389e-012	8.38824e-012	1.0291e-011	1.20337e-011	1.34506e-011	1.50542e-011	1.66168e-011	1.83683e-011	1.99778e-011	2.1525e-011	2.29771e-011	2.42429e-011	2.58206e-011	2.72329e-011	2.86731e-011	2.99471e-011	
CoarseR120	-2.87249e-013	1.73988e-012	3.49226e-012	5.40808e-012	6.95177e-012	8.7101e-012	1.05852e-011	1.24859e-011	1.40627e-011	1.54788e-011	1.72492e-011	1.88301e-011	2.04183e-011	2.19828e-011	2.35498e-011	2.48169e-011	2.64116e-011	2.80085e-011	2.92548e-011	3.06946e-011	3.19488e-011	
MinCout:	1.29778e-013	CoarseR:	112	CoarseC:	50

	FineC0	FineC10	FineC20	FineC30	FineC40	FineC50	FineC60	FineC70	FineC80	FineC90	FineC100	FineC110	FineC120	FineC130	FineC140	FineC150	FineC160	FineC170	FineC180	FineC190	FineC200	FineC210	FineC220	FineC230	FineC240	FineC250	
FineR0	-1.31604e-010	-1.05134e-010	-8.9092e-011	-7.74262e-011	-6.85509e-011	-6.15389e-011	-5.60261e-011	-5.138e-011	-4.75868e-011	-4.43836e-011	-4.16292e-011	-3.92876e-011	-3.71055e-011	-3.53614e-011	-3.37559e-011	-3.22901e-011	-3.09844e-011	-2.98203e-011	-2.87946e-011	-2.77485e-011	-2.68867e-011	-2.61653e-011	-2.54244e-011	-2.48641e-011	-2.41033e-011	-2.3523e-011	
FineR10	-1.15073e-010	-8.87485e-011	-7.26934e-011	-6.10316e-011	-5.23245e-011	-4.535e-011	-3.9817e-011	-3.53378e-011	-3.15506e-011	-2.8327e-011	-2.55817e-011	-2.3267e-011	-2.1044e-011	-1.93474e-011	-1.77219e-011	-1.62583e-011	-1.4957e-011	-1.39338e-011	-1.29325e-011	-1.18879e-011	-1.11697e-011	-1.02881e-011	-9.5679e-012	-8.80787e-012	-8.24866e-012	-7.6518e-012	
FineR20	-1.07684e-010	-8.15021e-011	-6.54208e-011	-5.39348e-011	-4.5208e-011	-3.8266e-011	-3.27383e-011	-2.8217e-011	-2.44612e-011	-2.12642e-011	-1.8337e-011	-1.60277e-011	-1.39926e-011	-1.20917e-011	-1.04914e-011	-9.02976e-012	-7.89025e-012	-6.751e-012	-5.70808e-012	-4.84982e-012	-3.96902e-012	-3.06685e-012	-2.34874e-012	-1.77104e-012	-1.17527e-012	-6.16573e-013	
FineR30	-1.03613e-010	-7.73083e-011	-6.13981e-011	-4.98942e-011	-4.10374e-011	-3.42351e-011	-2.8529e-011	-2.40602e-011	-2.04176e-011	-1.72487e-011	-1.44857e-011	-1.21556e-011	-9.98194e-012	-8.24624e-012	-6.46325e-012	-5.02493e-012	-3.88711e-012	-2.70645e-012	-1.70705e-012	-8.2845e-013	3.0528e-014	9.11714e-013	1.65e-012	2.38907e-012	2.80181e-012	3.40015e-012	
FineR40	-1.00889e-010	-7.47256e-011	-5.86605e-011	-4.71611e-011	-3.84371e-011	-3.14567e-011	-2.59876e-011	-2.14723e-011	-1.75343e-011	-1.45284e-011	-1.17668e-011	-9.27568e-012	-7.22089e-012	-5.36844e-012	-3.74853e-012	-2.45243e-012	-1.31608e-012	6.4321e-015	1.0258e-012	1.88292e-012	2.76224e-012	3.49909e-012	4.38059e-012	4.7922e-012	5.53151e-012	5.94445e-012	
FineR50	-9.90237e-011	-7.28619e-011	-5.69654e-011	-4.53094e-011	-3.64601e-011	-2.96121e-011	-2.41456e-011	-1.94703e-011	-1.56962e-011	-1.25303e-011	-9.90812e-012	-7.4416e-012	-5.40977e-012	-3.51389e-012	-1.91712e-012	-6.43232e-013	5.13767e-013	1.83576e-012	2.85463e-012	3.73213e-012	4.59021e-012	5.30584e-012	6.18749e-012	6.76119e-012	7.35814e-012	7.93365e-012	
FineR60	-9.7712e-011	-7.15569e-011	-5.55028e-011	-4.4007e-011	-3.51607e-011	-2.83398e-011	-2.26409e-011	-1.83397e-011	-1.4428e-011	-1.12164e-011	-8.45748e-012	-6.13076e-012	-4.1229e-012	-2.39e-012	-6.31469e-013	8.26618e-013	1.98299e-012	3.11948e-012	4.13787e-012	5.01499e-012	5.87272e-012	6.75244e-012	7.48967e-012	8.24855e-012	8.82433e-012	9.39972e-012	
FineR70	-9.66126e-011	-7.04618e-011	-5.4566e-011	-4.28855e-011	-3.40176e-011	-2.72272e-011	-2.17136e-011	-1.70909e-011	-1.3319e-011	-1.02698e-011	-7.53475e-012	-5.20878e-012	-3.20164e-012	-1.14402e-012	3.10471e-013	1.76796e-012	3.06519e-012	4.24472e-012	5.26145e-012	6.2602e-012	7.15959e-012	7.85405e-012	8.42801e-012	9.16574e-012	9.90517e-012	1.03165e-011	
FineR80	-9.58564e-011	-6.97103e-011	-5.36291e-011	-4.2139e-011	-3.32727e-011	-2.64564e-011	-2.09712e-011	-1.63241e-011	-1.25537e-011	-9.52983e-012	-6.61007e-012	-4.30763e-012	-2.1156e-012	-3.8383e-013	1.2109e-012	2.66813e-012	3.98652e-012	5.12333e-012	5.97712e-012	7.01789e-012	8.05883e-012	8.61044e-012	9.32688e-012	1.00855e-011	1.06607e-011	1.12359e-011	
FineR90	-9.51318e-011	-6.89231e-011	-5.30686e-011	-4.14184e-011	-3.2711e-011	-2.5602e-011	-2.02522e-011	-1.55818e-011	-1.19966e-011	-8.64924e-012	-5.89227e-012	-3.75248e-012	-1.53832e-012	1.70389e-013	1.928e-012	3.38513e-012	4.70345e-012	5.69734e-012	6.87771e-012	7.75405e-012	8.63159e-012	9.49004e-012	1.00636e-011	1.0801e-011	1.12123e-011	1.18072e-011	
FineR100	-9.45588e-011	-6.83838e-011	-5.24707e-011	-4.08552e-011	-3.21494e-011	-2.50169e-011	-1.9693e-011	-1.52078e-011	-1.1439e-011	-8.09227e-012	-5.49786e-012	-3.03385e-012	-1.00526e-012	8.88312e-013	2.48276e-012	3.93961e-012	5.2577e-012	6.2513e-012	7.43149e-012	8.28698e-012	9.18501e-012	9.87876e-012	1.0452e-011	1.11892e-011	1.19283e-011	1.23401e-011	
FineR110	-9.41785e-011	-6.80416e-011	-5.1966e-011	-4.04496e-011	-3.14545e-011	-2.46408e-011	-1.91314e-011	-1.46748e-011	-1.08799e-011	-7.6967e-012	-4.96409e-012	-2.63996e-012	-6.34581e-013	1.25878e-012	2.87484e-012	4.33123e-012	5.64891e-012	6.78412e-012	7.80113e-012	8.65563e-012	9.55441e-012	1.04329e-011	1.11692e-011	1.18862e-011	1.22961e-011	1.28908e-011	
FineR120	-9.36692e-011	-6.74672e-011	-5.15843e-011	-3.99432e-011	-3.12104e-011	-2.42644e-011	-1.87561e-011	-1.42753e-011	-1.03454e-011	-7.18561e-012	-4.56908e-012	-2.10606e-012	-1.00813e-013	1.6516e-012	3.22299e-012	4.70122e-012	5.97547e-012	7.1746e-012	8.19116e-012	9.18883e-012	9.90172e-012	1.08015e-011	1.15376e-011	1.22745e-011	1.26642e-011	1.34238e-011	
FineR130	-9.32492e-011	-6.72731e-011	-5.11761e-011	-3.97218e-011	-3.06997e-011	-2.38888e-011	-1.84077e-011	-1.37642e-011	-1.01579e-011	-6.81263e-012	-4.21965e-012	-1.73421e-012	2.70549e-013	2.00022e-012	3.7568e-012	5.04943e-012	6.53041e-012	7.52331e-012	8.53987e-012	9.57869e-012	1.04352e-011	1.13135e-011	1.18864e-011	1.24385e-011	1.31975e-011	1.37938e-011	
FineR140	-9.2933e-011	-6.68894e-011	-5.08277e-011	-3.93733e-011	-3.05094e-011	-2.35673e-011	-1.80084e-011	-1.35521e-011	-9.78558e-012	-6.43998e-012	-3.87087e-012	-1.38529e-012	6.41849e-013	2.53441e-012	4.10565e-012	5.39829e-012	6.71559e-012	7.89403e-012	9.05193e-012	9.92763e-012	1.08045e-011	1.14979e-011	1.20706e-011	1.28288e-011	1.35465e-011	1.39777e-011	
FineR150	-9.27467e-011	-6.67031e-011	-5.06625e-011	-3.9021e-011	-3.03201e-011	-2.33505e-011	-1.7684e-011	-1.32019e-011	-9.43578e-012	-6.25382e-012	-3.49855e-012	-1.19923e-012	8.27751e-013	2.72011e-012	4.47644e-012	5.58363e-012	6.9008e-012	8.24226e-012	9.09454e-012	1.01341e-011	1.08249e-011	1.1704e-011	1.24399e-011	1.31766e-011	1.37522e-011	1.43467e-011	
FineR160	-9.26709e-011	-6.63838e-011	-5.03155e-011	-3.88042e-011	-2.99713e-011	-2.31619e-011	-1.74959e-011	-1.30144e-011	-9.08587e-012	-5.90419e-012	-3.31204e-012	-8.27259e-013	1.17687e-012	3.06891e-012	4.49879e-012	5.95428e-012	7.27121e-012	8.42742e-012	9.44277e-012	1.04823e-011	1.13385e-011	1.2052e-011	1.27879e-011	1.33612e-011	1.39351e-011	1.45311e-011	
FineR170	-9.23243e-011	-6.61908e-011	-5.01241e-011	-3.84819e-011	-2.97818e-011	-2.2814e-011	-1.73078e-011	-1.28267e-011	-8.89863e-012	-5.69345e-012	-3.12545e-012	-6.63775e-013	1.3854e-012	3.25478e-012	4.68447e-012	6.1398e-012	7.4566e-012	8.77584e-012	9.6279e-012	1.06456e-011	1.13578e-011	1.22368e-011	1.29726e-011	1.37106e-011	1.42846e-011	1.48791e-011	
FineR180	-9.21607e-011	-6.58083e-011	-4.99001e-011	-3.84538e-011	-2.94313e-011	-2.26252e-011	-1.71196e-011	-1.2639e-011	-8.71131e-012	-5.53032e-012	-2.9619e-012	-4.77394e-013	1.54912e-012	3.44072e-012	5.03349e-012	6.3254e-012	7.62e-012	8.96117e-012	9.79126e-012	1.08101e-011	1.16868e-011	1.24217e-011	1.31574e-011	1.38739e-011	1.44891e-011	1.50637e-011	
FineR190	-9.19969e-011	-6.58065e-011	-4.97687e-011	-3.82597e-011	-2.94042e-011	-2.24614e-011	-1.69297e-011	-1.22907e-011	-8.52392e-012	-5.34283e-012	-2.75185e-012	-2.90938e-013	1.7351e-012	3.60423e-012	5.21873e-012	6.65238e-012	7.96838e-012	9.00434e-012	1.01625e-011	1.10158e-011	1.18719e-011	1.25851e-011	1.34855e-011	1.38954e-011	1.46525e-011	1.50636e-011	
FineR200	-9.18121e-011	-6.56427e-011	-4.97068e-011	-3.79387e-011	-2.92403e-011	-2.22725e-011	-1.67675e-011	-1.21269e-011	-8.36187e-012	-5.34201e-012	-2.40308e-012	-2.67441e-013	1.89868e-012	3.62722e-012	5.38286e-012	6.83734e-012	8.15394e-012	9.14684e-012	1.01616e-011	1.11793e-011	1.20557e-011	1.27688e-011	1.35057e-011	1.42436e-011	1.48159e-011	1.5227e-011	
FineR210	-9.16077e-011	-6.56115e-011	-4.93871e-011	-3.78803e-011	-2.90506e-011	-2.2244e-011	-1.65803e-011	-1.21006e-011	-8.17365e-012	-4.99329e-012	-2.40231e-012	-1.03811e-013	2.08469e-012	3.97589e-012	5.40507e-012	6.85996e-012	8.17639e-012	9.33134e-012	1.0347e-011	1.12001e-011	1.20559e-011	1.29551e-011	1.36906e-011	1.4407e-011	1.4816e-011	1.55752e-011	
FineR220	-9.16057e-011	-6.52581e-011	-4.93854e-011	-3.79053e-011	-2.88624e-011	-2.19189e-011	-1.63903e-011	-1.20995e-011	-8.17267e-012	-4.96857e-012	-2.21528e-012	2.45073e-013	2.24804e-012	3.97643e-012	5.73195e-012	7.02353e-012	8.17586e-012	9.49558e-012	1.05113e-011	1.15278e-011	1.24042e-011	1.31186e-011	1.36908e-011	1.44271e-011	1.51642e-011	1.5595e-011	
FineR230	-9.12501e-011	-6.52855e-011	-4.93511e-011	-3.75842e-011	-2.88867e-011	-2.19175e-011	-1.63891e-011	-1.17499e-011	-7.9861e-012	-4.82826e-012	-2.07565e-012	2.45792e-013	2.27111e-012	4.16214e-012	5.73178e-012	7.20816e-012	8.50316e-012	9.49489e-012	1.06957e-011	1.15487e-011	1.24248e-011	1.31376e-011	1.40175e-011	1.45905e-011	1.51643e-011	1.5595e-011	
FineR240	-9.128e-011	-6.50941e-011	-4.90267e-011	-3.75523e-011	-2.88566e-011	-2.17298e-011	-1.62526e-011	-1.17477e-011	-7.98439e-012	-4.64191e-012	-2.05154e-012	4.3174e-013	2.43446e-012	4.32522e-012	5.75404e-012	7.20861e-012	8.50262e-012	9.84337e-012	1.06948e-011	1.17338e-011	1.25894e-011	1.33023e-011	1.40378e-011	1.47739e-011	1.51842e-011	1.59433e-011	
FineR250	-9.10862e-011	-6.5086e-011	-4.90249e-011	-3.73899e-011	-2.86942e-011	-2.17264e-011	-1.62252e-011	-1.15861e-011	-7.82056e-012	-4.64063e-012	-1.8886e-012	4.32358e-013	2.43479e-012	4.32581e-012	6.1027e-012	7.37178e-012	8.68797e-012	9.86471e-012	1.08592e-011	1.17122e-011	1.26101e-011	1.33011e-011	1.40379e-011	1.47741e-011	1.53476e-011	1.59417e-011	
MinCout:	6.4321e-015	FineR:	40	FineC:	170

	FineC120	FineC121	FineC122	FineC123	FineC124	FineC125	FineC126	FineC127	FineC128	FineC129	FineC130	FineC131	FineC132	FineC133	FineC134	FineC135	FineC136	FineC137	FineC138	FineC139	FineC140	
FineR90	-1.72346e-012	-1.39801e-012	-1.25765e-012	-1.11725e-012	-8.13994e-013	-6.73489e-013	-5.32937e-013	-2.518e-013	-1.11091e-013	2.96253e-014	1.70389e-013	4.74034e-013	6.14897e-013	7.55806e-013	8.96763e-013	1.22271e-012	1.36375e-012	1.34168e-012	1.48278e-012	1.7868e-012	1.928e-012	
FineR91	-1.56085e-012	-1.39801e-012	-1.11731e-012	-9.76872e-013	-8.36383e-013	-5.33024e-013	-3.92435e-013	-2.29524e-013	-8.8873e-014	2.1465e-013	3.554e-013	4.96197e-013	7.99881e-013	9.18729e-013	1.08172e-012	1.05961e-012	1.17863e-012	1.50454e-012	1.6677e-012	1.80883e-012	1.95002e-012	
FineR92	-1.37569e-012	-1.23536e-012	-1.09498e-012	-7.91745e-013	-6.51269e-013	-5.10745e-013	-3.70175e-013	-6.67099e-014	5.17209e-014	1.92456e-013	3.77581e-013	6.59088e-013	6.3692e-013	7.77801e-013	9.18729e-013	1.24457e-012	1.3636e-012	1.52661e-012	1.6677e-012	1.94985e-012	1.94967e-012	
FineR93	-1.51597e-012	-1.07256e-012	-1.09491e-012	-7.91745e-013	-6.51269e-013	-5.10748e-013	-3.70202e-013	-6.67253e-014	2.36782e-013	3.77504e-013	3.55299e-013	4.96086e-013	7.99773e-013	9.40659e-013	1.08159e-012	1.22257e-012	1.52647e-012	1.66755e-012	1.68947e-012	1.80868e-012	1.94985e-012	
FineR94	-1.35318e-012	-1.23539e-012	-1.07256e-012	-7.69367e-013	-6.28933e-013	-4.88452e-013	-3.47923e-013	-4.45203e-014	2.36782e-013	2.36782e-013	5.40346e-013	6.5899e-013	8.21941e-013	9.62809e-013	1.10372e-012	1.40755e-012	1.38544e-012	1.68963e-012	1.66755e-012	1.99362e-012	2.13478e-012	
FineR95	-1.35332e-012	-1.0502e-012	-9.09849e-013	-7.69449e-013	-6.29001e-013	-3.25671e-013	-1.85124e-013	-4.45305e-014	2.58961e-013	3.99654e-013	5.18184e-013	6.8112e-013	7.99842e-013	1.12567e-012	1.26671e-012	1.40755e-012	1.40755e-012	1.71144e-012	1.85251e-012	1.99362e-012	2.13478e-012	
FineR96	-1.19051e-012	-1.0502e-012	-9.09849e-013	-6.06624e-013	-4.66171e-013	-3.25671e-013	-2.22837e-014	1.18315e-013	2.36714e-013	3.9962e-013	7.03256e-013	8.44048e-013	9.84794e-013	9.84794e-013	1.28852e-012	1.42945e-012	1.57042e-012	1.71144e-012	1.85251e-012	2.1565e-012	2.29789e-012	
FineR97	-1.19051e-012	-8.87388e-013	-7.47029e-013	-6.06624e-013	-4.66171e-013	-1.62836e-013	-2.22837e-014	1.18315e-013	4.21812e-013	5.6251e-013	7.03256e-013	8.44048e-013	1.00691e-012	1.12559e-012	1.26649e-012	1.42959e-012	1.73346e-012	1.89641e-012	2.01558e-012	2.15671e-012	2.13465e-012	
FineR98	-1.1905e-012	-1.0277e-012	-9.09858e-013	-4.21459e-013	-4.43798e-013	-1.40547e-013	-1.85161e-013	1.40557e-013	4.44059e-013	5.84739e-013	7.25366e-013	8.43986e-013	1.00691e-012	1.12569e-012	1.45153e-012	1.61461e-012	1.75558e-012	1.8745e-012	1.8745e-012	2.17848e-012	2.31961e-012	
FineR99	-1.16808e-012	-1.0278e-012	-7.24644e-013	-4.21499e-013	-4.43843e-013	-1.40523e-013	0	1.4057e-013	4.21852e-013	5.62469e-013	7.03204e-013	8.66202e-013	1.1699e-012	1.31076e-012	1.45167e-012	1.59263e-012	1.59247e-012	1.87441e-012	2.03739e-012	2.17848e-012	2.31961e-012	
FineR100	-9.82839e-013	-8.42575e-013	-7.02263e-013	-4.21468e-013	-2.80999e-013	-1.40523e-013	0	3.03429e-013	4.44052e-013	5.84721e-013	8.88312e-013	1.02908e-012	1.1699e-012	1.31076e-012	1.63672e-012	1.77767e-012	1.75553e-012	1.89654e-012	2.03759e-012	2.34161e-012	2.48276e-012	
FineR101	-1.00535e-012	-7.02212e-013	-5.61863e-013	-3.99066e-013	-2.81026e-013	2.23307e-014	1.62872e-013	3.25718e-013	6.06916e-013	7.69843e-013	9.10546e-013	1.02908e-012	1.35498e-012	1.49583e-012	1.47365e-012	1.61456e-012	1.91843e-012	2.05944e-012	2.2005e-012	2.34161e-012	2.50483e-012	
FineR102	-8.2009e-013	-6.79807e-013	-5.39478e-013	-2.36244e-013	-9.58147e-014	4.46615e-014	1.62872e-013	4.66339e-013	6.06979e-013	7.47667e-013	1.0513e-012	1.19208e-012	1.19196e-012	1.31071e-012	1.45161e-012	1.79962e-012	1.91862e-012	2.08156e-012	2.20072e-012	2.50478e-012	2.50452e-012	
FineR103	-9.82767e-013	-5.16961e-013	-3.76626e-013	-2.36244e-013	-2.58611e-013	4.46982e-014	3.48057e-013	3.25745e-013	7.92138e-013	7.69862e-013	9.10555e-013	1.0513e-012	1.19208e-012	1.49582e-012	1.63671e-012	1.77764e-012	2.08154e-012	2.22257e-012	2.22235e-012	2.36341e-012	2.48268e-012	
FineR104	-7.97489e-013	-7.0216e-013	-5.16961e-013	-2.13774e-013	-9.57544e-014	4.46982e-014	1.85198e-013	4.88617e-013	6.29216e-013	7.69862e-013	1.07344e-012	1.21419e-012	1.35498e-012	1.49582e-012	1.63671e-012	1.94055e-012	2.08154e-012	2.08154e-012	2.22257e-012	2.52658e-012	2.66771e-012	
FineR105	-8.20004e-013	-4.94407e-013	-3.76548e-013	-2.36176e-013	-7.33869e-014	2.07589e-013	3.48107e-013	4.88672e-013	8.14388e-013	9.5502e-013	1.0957e-012	1.23643e-012	1.3772e-012	1.68092e-012	1.8218e-012	1.79961e-012	1.94055e-012	2.24446e-012	2.40762e-012	2.52658e-012	2.6898e-012	
FineR106	-6.34703e-013	-4.94444e-013	-3.54138e-013	-7.33059e-014	6.7118e-014	2.07589e-013	3.48107e-013	6.73802e-013	7.9218e-013	9.32845e-013	1.0957e-012	1.37723e-012	1.51804e-012	1.65889e-012	1.63669e-012	1.96252e-012	2.10368e-012	2.24469e-012	2.40762e-012	2.54869e-012	2.85274e-012	
FineR107	-6.34703e-013	-4.94444e-013	-1.91273e-013	-2.85363e-014	8.94907e-014	2.29943e-013	5.33329e-013	6.73881e-013	7.9218e-013	1.11803e-012	1.25872e-012	1.39947e-012	1.54026e-012	1.68095e-012	1.82182e-012	1.96273e-012	2.10368e-012	2.24469e-012	2.57081e-012	2.54868e-012	2.68978e-012	
FineR108	-4.71881e-013	-3.09157e-013	-1.91279e-013	-5.09148e-014	2.52405e-013	4.15178e-013	5.33329e-013	6.73881e-013	9.77375e-013	1.11803e-012	1.09575e-012	1.23646e-012	1.70318e-012	1.68095e-012	1.84402e-012	1.96273e-012	2.26661e-012	2.42978e-012	2.57081e-012	2.54868e-012	2.85273e-012	
FineR109	-6.34581e-013	-3.09157e-013	-1.68725e-013	-2.84082e-014	1.11955e-013	2.52366e-013	5.55704e-013	6.96214e-013	9.55182e-013	1.14031e-012	1.25878e-012	1.39937e-012	1.56238e-012	1.70318e-012	2.00694e-012	2.12587e-012	2.26685e-012	2.42978e-012	2.75589e-012	2.68976e-012	2.87484e-012	
FineR110	-6.12111e-013	-3.31459e-013	-1.68725e-013	1.11981e-013	8.95849e-014	4.15299e-013	5.33415e-013	6.73957e-013	1.1404e-012	1.1181e-012	1.25878e-012	1.39952e-012	1.70323e-012	1.8661e-012	1.98495e-012	2.14784e-012	2.47389e-012	2.59298e-012	2.57083e-012	2.7119e-012	2.87484e-012	
MinCout:	0	FineR:	99	FineC:	126

