	CoarseC0	CoarseC10	CoarseC20	CoarseC30	CoarseC40	CoarseC50	CoarseC60	CoarseC70	CoarseC80	CoarseC90	CoarseC100	CoarseC110	CoarseC120	CoarseC130	CoarseC140	CoarseC150	CoarseC160	CoarseC170	CoarseC180	CoarseC190	CoarseC200	CoarseC210	CoarseC220	CoarseC230	CoarseC240	CoarseC250	
CoarseR0	-1.06621e-009	-1.02194e-009	-9.79563e-010	-9.43124e-010	-9.12125e-010	-8.86021e-010	-8.63407e-010	-8.43752e-010	-8.26466e-010	-8.11886e-010	-7.9906e-010	-7.87619e-010	-7.77847e-010	-7.69109e-010	-7.6152e-010	-7.54632e-010	-7.48533e-010	-7.43231e-010	-7.38665e-010	-7.34545e-010	-7.31067e-010	-7.27961e-010	-7.2546e-010	-7.23174e-010	-7.21416e-010	-7.19942e-010	
CoarseR10	-8.00668e-010	-7.53084e-010	-7.13848e-010	-6.79846e-010	-6.51296e-010	-6.26744e-010	-6.05699e-010	-5.87121e-010	-5.70996e-010	-5.57164e-010	-5.44952e-010	-5.3412e-010	-5.24695e-010	-5.16525e-010	-5.09261e-010	-5.02929e-010	-4.97471e-010	-4.92593e-010	-4.88803e-010	-4.85605e-010	-4.82803e-010	-4.80653e-010	-4.78764e-010	-4.77338e-010	-4.76499e-010	-4.75861e-010	
CoarseR20	-6.29725e-010	-5.82063e-010	-5.44661e-010	-5.12591e-010	-4.85656e-010	-4.6253e-010	-4.42484e-010	-4.24842e-010	-4.09607e-010	-3.96433e-010	-3.84846e-010	-3.74926e-010	-3.66171e-010	-3.58934e-010	-3.52415e-010	-3.46928e-010	-3.42e-010	-3.38135e-010	-3.34664e-010	-3.31933e-010	-3.29797e-010	-3.2811e-010	-3.26845e-010	-3.26166e-010	-3.25768e-010	-3.25807e-010	
CoarseR30	-5.09479e-010	-4.63446e-010	-4.27408e-010	-3.96848e-010	-3.71231e-010	-3.49238e-010	-3.29952e-010	-3.13257e-010	-2.98851e-010	-2.86644e-010	-2.75724e-010	-2.66311e-010	-2.58521e-010	-2.51765e-010	-2.45681e-010	-2.40946e-010	-2.36586e-010	-2.33188e-010	-2.30427e-010	-2.28275e-010	-2.26641e-010	-2.25636e-010	-2.25196e-010	-2.25184e-010	-2.25588e-010	-2.2627e-010	
CoarseR40	-4.20049e-010	-3.74808e-010	-3.39964e-010	-3.1072e-010	-2.85892e-010	-2.64949e-010	-2.46554e-010	-2.3067e-010	-2.17044e-010	-2.05378e-010	-1.95203e-010	-1.8647e-010	-1.79224e-010	-1.72844e-010	-1.67597e-010	-1.63076e-010	-1.59571e-010	-1.56774e-010	-1.54561e-010	-1.53054e-010	-1.52401e-010	-1.52031e-010	-1.52413e-010	-1.53189e-010	-1.54545e-010	-1.5653e-010	
CoarseR50	-3.50793e-010	-3.06032e-010	-2.72495e-010	-2.44101e-010	-2.20323e-010	-1.99987e-010	-1.82449e-010	-1.67238e-010	-1.53978e-010	-1.42923e-010	-1.33384e-010	-1.25147e-010	-1.18525e-010	-1.12778e-010	-1.08031e-010	-1.0412e-010	-1.01099e-010	-9.91173e-011	-9.75197e-011	-9.70058e-011	-9.70198e-011	-9.77434e-011	-9.90691e-011	-1.00975e-010	-1.03576e-010	-1.06763e-010	
CoarseR60	-2.95063e-010	-2.51287e-010	-2.1851e-010	-1.91234e-010	-1.67988e-010	-1.48393e-010	-1.31617e-010	-1.17005e-010	-1.0432e-010	-9.38821e-011	-8.47954e-011	-7.71356e-011	-7.09888e-011	-6.56921e-011	-6.15845e-011	-5.83336e-011	-5.62633e-011	-5.46016e-011	-5.41308e-011	-5.42266e-011	-5.52044e-011	-5.6946e-011	-5.93708e-011	-6.285e-011	-6.70488e-011	-7.2388e-011	
CoarseR70	-2.49178e-010	-2.06194e-010	-1.74511e-010	-1.47807e-010	-1.25284e-010	-1.06442e-010	-9.00489e-011	-7.59822e-011	-6.38709e-011	-5.38764e-011	-4.53792e-011	-3.8014e-011	-3.23165e-011	-2.7639e-011	-2.41391e-011	-2.16984e-011	-1.99366e-011	-1.94047e-011	-1.96052e-011	-2.08304e-011	-2.29601e-011	-2.59725e-011	-3.01502e-011	-3.56585e-011	-4.36623e-011	-5.15309e-011	
CoarseR80	-2.10328e-010	-1.68447e-010	-1.37609e-010	-1.1129e-010	-8.94006e-011	-7.09393e-011	-5.51018e-011	-4.16099e-011	-2.98955e-011	-2.03152e-011	-1.22592e-011	-5.6461e-012	-4.08492e-013	3.64236e-012	6.49911e-012	8.45952e-012	9.40576e-012	9.10655e-012	7.9384e-012	5.36172e-012	1.93305e-012	-3.14366e-012	-1.09184e-011	-1.92233e-011	-2.72104e-011	-3.53111e-011	
CoarseR90	-1.77097e-010	-1.36257e-010	-1.05924e-010	-8.04485e-011	-5.8931e-011	-4.07793e-011	-2.53453e-011	-1.22141e-011	-9.31594e-013	8.21983e-012	1.60346e-011	2.2013e-011	2.6626e-011	3.02136e-011	3.24001e-011	3.35537e-011	3.36295e-011	3.23508e-011	2.98155e-011	2.57816e-011	1.93998e-011	1.09405e-011	2.46577e-012	-5.89182e-012	-1.41011e-011	-2.18174e-011	
CoarseR100	-1.48194e-010	-1.08185e-010	-7.81613e-011	-5.31668e-011	-3.21536e-011	-1.45622e-011	5.29008e-013	1.33991e-011	2.4136e-011	3.28494e-011	4.02231e-011	4.57263e-011	5.00192e-011	5.28029e-011	5.44924e-011	5.4964e-011	5.36987e-011	5.13887e-011	4.72143e-011	3.96491e-011	3.12067e-011	2.2471e-011	1.37064e-011	5.40459e-012	-2.43184e-012	-9.77063e-012	
CoarseR110	-1.23294e-010	-8.35898e-011	-5.41903e-011	-2.95219e-011	-8.86684e-012	8.56099e-012	2.32377e-011	3.57197e-011	4.62106e-011	5.44836e-011	6.12159e-011	6.64275e-011	7.00831e-011	7.25089e-011	7.31671e-011	7.26135e-011	7.04833e-011	6.63291e-011	5.85304e-011	4.97583e-011	4.05955e-011	3.17272e-011	2.33381e-011	1.58074e-011	8.42962e-012	1.35972e-012	
CoarseR120	-1.01054e-010	-6.1879e-011	-3.29715e-011	-8.45201e-012	1.16993e-011	2.87693e-011	4.32329e-011	5.54629e-011	6.54845e-011	7.36791e-011	7.99377e-011	8.46486e-011	8.78198e-011	8.9383e-011	8.93606e-011	8.79276e-011	8.41087e-011	7.62731e-011	6.73607e-011	5.82786e-011	4.91443e-011	4.06905e-011	3.27681e-011	2.53375e-011	1.82512e-011	1.18561e-011	
CoarseR130	-8.13182e-011	-4.26289e-011	-1.39893e-011	1.00093e-011	2.99843e-011	4.70082e-011	6.1064e-011	7.30781e-011	8.28442e-011	9.05434e-011	9.64921e-011	1.0071e-010	1.03355e-010	1.04222e-010	1.03497e-010	1.00337e-010	9.32817e-011	8.43757e-011	7.48344e-011	6.55884e-011	5.70851e-011	4.89339e-011	4.14884e-011	3.42261e-011	2.76428e-011	2.14296e-011	
CoarseR140	-6.36919e-011	-2.54382e-011	3.09677e-012	2.67717e-011	4.67391e-011	6.33622e-011	7.72175e-011	8.9114e-011	9.8599e-011	1.06e-010	1.11634e-010	1.15325e-010	1.17283e-010	1.17243e-010	1.15318e-010	1.09619e-010	1.00527e-010	9.13733e-011	8.18627e-011	7.27439e-011	6.45429e-011	5.67244e-011	4.9626e-011	4.27074e-011	3.65106e-011	3.05183e-011	
CoarseR150	-4.73366e-011	-9.48781e-012	1.87108e-011	4.22552e-011	6.18624e-011	7.8266e-011	9.21852e-011	1.0367e-010	1.12851e-010	1.19943e-010	1.25049e-010	1.28581e-010	1.29806e-010	1.28919e-010	1.25225e-010	1.16653e-010	1.07418e-010	9.78456e-011	8.84565e-011	7.98628e-011	7.19924e-011	6.47237e-011	5.76585e-011	5.11089e-011	4.47733e-011	3.91709e-011	
CoarseR160	-3.28888e-011	4.89277e-012	3.27771e-011	5.63127e-011	7.57276e-011	9.20871e-011	1.05775e-010	1.16753e-010	1.25824e-010	1.32764e-010	1.37717e-010	1.40182e-010	1.41047e-010	1.38905e-010	1.32297e-010	1.23202e-010	1.13249e-010	1.03811e-010	9.49489e-011	8.67211e-011	7.92399e-011	7.19739e-011	6.51289e-011	5.86237e-011	5.28756e-011	4.73391e-011	
CoarseR170	-1.9515e-011	1.79711e-011	4.57265e-011	6.90716e-011	8.84188e-011	1.04561e-010	1.18177e-010	1.29222e-010	1.37969e-010	1.44405e-010	1.49021e-010	1.5114e-010	1.50716e-010	1.47452e-010	1.38489e-010	1.28815e-010	1.19084e-010	1.09985e-010	1.0152e-010	9.34681e-011	8.60258e-011	7.91809e-011	7.25344e-011	6.64789e-011	6.06401e-011	5.51632e-011	
CoarseR180	-7.25938e-012	2.99239e-011	5.76963e-011	8.06967e-011	1.00019e-010	1.16255e-010	1.29577e-010	1.40525e-010	1.49138e-010	1.55395e-010	1.59307e-010	1.61065e-010	1.59928e-010	1.53471e-010	1.44543e-010	1.34465e-010	1.24923e-010	1.16009e-010	1.07767e-010	9.99133e-011	9.29249e-011	8.61085e-011	7.95332e-011	7.37429e-011	6.81477e-011	6.29512e-011	
CoarseR190	3.69304e-012	4.09459e-011	6.85588e-011	9.17619e-011	1.10857e-010	1.2685e-010	1.40062e-010	1.51105e-010	1.59177e-010	1.65289e-010	1.6885e-010	1.69866e-010	1.67718e-010	1.59225e-010	1.49549e-010	1.39685e-010	1.30508e-010	1.22009e-010	1.13991e-010	1.06389e-010	9.92521e-011	9.26957e-011	8.65908e-011	8.07131e-011	7.52174e-011	7.00965e-011	
CoarseR200	1.38711e-011	5.09017e-011	7.87324e-011	1.01695e-010	1.20765e-010	1.36883e-010	1.49977e-010	1.60709e-010	1.69014e-010	1.74404e-010	1.77764e-010	1.78052e-010	1.73522e-010	1.64937e-010	1.54658e-010	1.45011e-010	1.36051e-010	1.278e-010	1.20014e-010	1.1268e-010	1.05793e-010	9.91583e-011	9.31285e-011	8.75134e-011	8.21046e-011	7.71498e-011	
CoarseR210	2.32025e-011	6.02663e-011	8.79472e-011	1.11085e-010	1.3008e-010	1.46113e-010	1.59127e-010	1.69727e-010	1.77698e-010	1.83123e-010	1.85938e-010	1.85702e-010	1.7889e-010	1.69718e-010	1.59727e-010	1.50475e-010	1.41766e-010	1.33556e-010	1.25856e-010	1.18582e-010	1.11969e-010	1.05808e-010	9.98652e-011	9.41965e-011	8.8886e-011	8.40374e-011	
CoarseR220	3.18746e-011	6.88021e-011	9.6484e-011	1.19629e-010	1.3878e-010	1.54683e-010	1.67633e-010	1.78249e-010	1.85885e-010	1.9119e-010	1.93644e-010	1.92511e-010	1.84155e-010	1.74605e-010	1.64822e-010	1.55826e-010	1.47004e-010	1.39241e-010	1.31781e-010	1.24627e-010	1.18127e-010	1.11865e-010	1.06046e-010	1.00667e-010	9.54904e-011	9.05638e-011	
CoarseR230	3.97226e-011	7.68037e-011	1.04282e-010	1.27551e-010	1.46644e-010	1.62451e-010	1.7564e-010	1.86162e-010	1.93871e-010	1.98603e-010	2.00706e-010	1.97809e-010	1.8937e-010	1.79417e-010	1.69698e-010	1.60934e-010	1.52544e-010	1.4469e-010	1.3733e-010	1.30451e-010	1.24054e-010	1.17885e-010	1.12183e-010	1.06893e-010	1.01876e-010	9.72537e-011	
CoarseR240	4.70301e-011	8.42925e-011	1.11773e-010	1.35015e-010	1.54051e-010	1.70167e-010	1.83228e-010	1.93422e-010	2.01176e-010	2.05935e-010	2.07343e-010	2.02857e-010	1.93973e-010	1.84278e-010	1.7479e-010	1.66115e-010	1.5803e-010	1.50057e-010	1.42989e-010	1.36419e-010	1.29945e-010	1.23893e-010	1.18313e-010	1.12959e-010	1.08073e-010	1.03429e-010	
CoarseR250	5.39638e-011	9.08559e-011	1.18766e-010	1.41986e-010	1.61101e-010	1.77147e-010	1.90142e-010	2.00373e-010	2.07979e-010	2.12587e-010	2.13626e-010	2.07724e-010	1.9864e-010	1.88986e-010	1.79816e-010	1.71218e-010	1.63205e-010	1.5554e-010	1.48368e-010	1.41892e-010	1.35746e-010	1.29834e-010	1.24172e-010	1.19159e-010	1.14219e-010	1.09507e-010	
MinCout:	-4.08492e-013	CoarseR:	80	CoarseC:	120

	CoarseC40	CoarseC41	CoarseC42	CoarseC43	CoarseC44	CoarseC45	CoarseC46	CoarseC47	CoarseC48	CoarseC49	CoarseC50	CoarseC51	CoarseC52	CoarseC53	CoarseC54	CoarseC55	CoarseC56	CoarseC57	CoarseC58	CoarseC59	CoarseC60	
CoarseR100	-3.21611e-011	-3.00547e-011	-2.84418e-011	-2.67786e-011	-2.48326e-011	-2.28841e-011	-2.12623e-011	-1.94489e-011	-1.78445e-011	-1.62161e-011	-1.45641e-011	-1.29316e-011	-1.12758e-011	-9.78452e-012	-8.02222e-012	-6.69131e-012	-5.06875e-012	-3.42422e-012	-2.10823e-012	-6.43448e-013	5.28211e-013	
CoarseR101	-2.9694e-011	-2.7729e-011	-2.60941e-011	-2.42896e-011	-2.22019e-011	-2.05606e-011	-1.86098e-011	-1.69863e-011	-1.51932e-011	-1.35653e-011	-1.19137e-011	-1.02816e-011	-8.79242e-012	-7.34311e-012	-5.72551e-012	-4.20997e-012	-2.44234e-012	-1.12896e-012	1.85827e-013	1.83509e-012	2.98601e-012	
CoarseR102	-2.72128e-011	-2.5248e-011	-2.36107e-011	-2.19743e-011	-2.00514e-011	-1.82434e-011	-1.64579e-011	-1.48352e-011	-1.28796e-011	-1.1229e-011	-9.60105e-012	-7.96947e-012	-6.52298e-012	-5.01082e-012	-3.22718e-012	-2.06468e-012	-2.76272e-013	1.1799e-012	2.51478e-012	4.14297e-012	5.46134e-012	
CoarseR103	-2.50443e-011	-2.30801e-011	-2.12817e-011	-1.94801e-011	-1.75325e-011	-1.59149e-011	-1.41056e-011	-1.23183e-011	-1.0694e-011	-8.90168e-012	-7.27278e-012	-5.80796e-012	-4.15331e-012	-2.68536e-012	-9.23765e-013	4.26146e-013	2.0257e-012	3.3581e-012	4.98363e-012	6.29902e-012	7.61671e-012	
CoarseR104	-2.25355e-011	-2.05715e-011	-1.89611e-011	-1.71345e-011	-1.51894e-011	-1.35724e-011	-1.16221e-011	-9.97675e-012	-8.18736e-012	-6.56126e-012	-4.93293e-012	-3.32476e-012	-1.83621e-012	-3.46835e-013	1.41398e-012	2.76331e-012	4.38323e-012	5.69399e-012	7.34011e-012	8.65448e-012	9.95084e-012	
CoarseR105	-2.01981e-011	-1.84008e-011	-1.64369e-011	-1.48e-011	-1.28549e-011	-1.12384e-011	-9.45355e-012	-7.66682e-012	-6.04256e-012	-4.22862e-012	-2.76683e-012	-1.13685e-012	3.50593e-013	1.98475e-012	3.59954e-012	4.92666e-012	6.52515e-012	8.18957e-012	9.48093e-012	1.08155e-011	1.21319e-011	
CoarseR106	-1.80401e-011	-1.60513e-011	-1.42522e-011	-1.2641e-011	-1.0695e-011	-9.05598e-012	-7.10616e-012	-5.48567e-012	-3.53067e-012	-1.90544e-012	-4.2189e-013	1.04109e-012	2.6728e-012	4.16163e-012	5.75377e-012	7.10177e-012	8.72017e-012	1.03634e-011	1.16539e-011	1.29665e-011	1.42823e-011	
CoarseR107	-1.5842e-011	-1.37147e-011	-1.20803e-011	-1.02811e-011	-8.33543e-012	-6.69614e-012	-4.91211e-012	-3.26946e-012	-1.5045e-012	2.86546e-013	1.60281e-012	3.39797e-012	4.86284e-012	6.35119e-012	8.1316e-012	9.43546e-012	1.12211e-011	1.25505e-011	1.38402e-011	1.53183e-011	1.66335e-011	
CoarseR108	-1.33014e-011	-1.1363e-011	-9.73105e-012	-7.88171e-012	-5.96114e-012	-4.34648e-012	-2.70604e-012	-7.54248e-013	8.6725e-013	2.49104e-012	3.97279e-012	5.76798e-012	7.23155e-012	8.5524e-012	1.03105e-011	1.16353e-011	1.34419e-011	1.47486e-011	1.62256e-011	1.75361e-011	1.88292e-011	
CoarseR109	-1.12445e-011	-9.33222e-012	-7.50877e-012	-5.87562e-012	-3.9554e-012	-2.294e-012	-3.4505e-013	1.27346e-012	2.91694e-012	4.70696e-012	6.31007e-012	7.96046e-012	9.25616e-012	1.07433e-011	1.25014e-011	1.38472e-011	1.54641e-011	1.69388e-011	1.82466e-011	1.97037e-011	2.10177e-011	
CoarseR110	-8.86684e-012	-6.93049e-012	-5.27516e-012	-3.6426e-012	-1.69907e-012	-8.60094e-014	1.86279e-012	3.50423e-012	5.29111e-012	6.91339e-012	8.56099e-012	1.01877e-011	1.16512e-011	1.29703e-011	1.47485e-011	1.60509e-011	1.78344e-011	1.91415e-011	2.06157e-011	2.1927e-011	2.32593e-011	
CoarseR111	-6.83946e-012	-4.90331e-012	-3.08051e-012	-1.44835e-012	4.71019e-013	2.13121e-012	3.91385e-012	5.53094e-012	7.31665e-012	9.10648e-012	1.05872e-011	1.22135e-011	1.36971e-011	1.49951e-011	1.67727e-011	1.8095e-011	1.97099e-011	2.11839e-011	2.24703e-011	2.39459e-011	2.52586e-011	
CoarseR112	-4.77325e-012	-2.8375e-012	-1.0394e-012	6.1643e-013	2.55952e-012	4.33971e-012	6.11996e-012	7.75943e-012	9.54654e-012	1.11678e-011	1.26263e-011	1.42735e-011	1.57353e-011	1.72212e-011	1.88307e-011	2.03001e-011	2.17465e-011	2.324e-011	2.45255e-011	2.60035e-011	2.73124e-011	
CoarseR113	-2.55539e-012	-5.95045e-013	1.20294e-012	2.69288e-012	4.61109e-012	6.39097e-012	8.19349e-012	9.83346e-012	1.15963e-011	1.3217e-011	1.48871e-011	1.63451e-011	1.79723e-011	1.92685e-011	2.08773e-011	2.23692e-011	2.39829e-011	2.52849e-011	2.65921e-011	2.80664e-011	2.93777e-011	
CoarseR114	-4.66014e-013	1.46843e-012	3.09713e-012	4.89687e-012	6.83841e-012	8.47363e-012	1.00623e-011	1.18467e-011	1.34646e-011	1.52776e-011	1.6755e-011	1.82126e-011	1.98628e-011	2.1327e-011	2.29351e-011	2.42552e-011	2.5868e-011	2.73411e-011	2.86668e-011	3.01214e-011	3.14322e-011	
CoarseR115	1.61004e-012	3.54388e-012	5.36645e-012	6.97164e-012	8.91262e-012	1.05474e-011	1.23289e-011	1.39437e-011	1.57277e-011	1.73711e-011	1.89714e-011	2.06194e-011	2.2102e-011	2.33968e-011	2.50244e-011	2.64926e-011	2.81047e-011	2.94085e-011	3.08797e-011	3.21651e-011	3.34939e-011	
CoarseR116	3.50131e-012	5.60544e-012	7.25708e-012	8.88676e-012	1.0827e-011	1.26058e-011	1.42422e-011	1.60256e-011	1.76638e-011	1.92581e-011	2.0882e-011	2.23382e-011	2.39876e-011	2.54714e-011	2.71013e-011	2.83998e-011	3.00111e-011	3.14795e-011	3.27846e-011	3.42384e-011	3.55663e-011	
CoarseR117	5.73762e-012	7.69608e-012	9.15783e-012	1.09568e-011	1.28964e-011	1.45301e-011	1.63107e-011	1.79241e-011	1.95616e-011	2.13491e-011	2.27997e-011	2.44224e-011	2.58833e-011	2.73666e-011	2.89723e-011	3.04633e-011	3.20932e-011	3.33954e-011	3.48462e-011	3.61485e-011	3.74572e-011	
CoarseR118	7.64962e-012	9.60762e-012	1.1428e-011	1.28908e-011	1.48066e-011	1.64397e-011	1.82422e-011	1.98546e-011	2.16148e-011	2.32567e-011	2.48763e-011	2.65226e-011	2.79792e-011	2.94417e-011	3.10467e-011	3.23871e-011	3.39967e-011	3.54681e-011	3.67672e-011	3.80731e-011	3.92117e-011	
CoarseR119	9.76853e-012	1.17259e-011	1.3326e-011	1.4982e-011	1.69228e-011	1.85299e-011	2.03319e-011	2.19687e-011	2.35578e-011	2.53447e-011	2.69882e-011	2.84664e-011	3.00694e-011	3.13814e-011	3.29855e-011	3.43076e-011	3.6085e-011	3.7236e-011	3.86855e-011	4.01781e-011	4.13159e-011	
CoarseR120	1.1728e-011	1.36585e-011	1.52839e-011	1.69393e-011	1.88539e-011	2.04858e-011	2.22872e-011	2.38981e-011	2.5682e-011	2.72978e-011	2.87733e-011	3.03936e-011	3.18485e-011	3.33341e-011	3.50811e-011	3.62277e-011	3.78405e-011	3.93298e-011	4.06083e-011	4.21014e-011	4.34078e-011	
MinCout:	-8.60094e-014	CoarseR:	110	CoarseC:	45

	FineC0	FineC10	FineC20	FineC30	FineC40	FineC50	FineC60	FineC70	FineC80	FineC90	FineC100	FineC110	FineC120	FineC130	FineC140	FineC150	FineC160	FineC170	FineC180	FineC190	FineC200	FineC210	FineC220	FineC230	FineC240	FineC250	
FineR0	-1.35656e-010	-1.08852e-010	-9.25717e-011	-8.06034e-011	-7.16952e-011	-6.45355e-011	-5.90118e-011	-5.42417e-011	-5.03911e-011	-4.72519e-011	-4.44409e-011	-4.18894e-011	-3.97952e-011	-3.78491e-011	-3.61879e-011	-3.48704e-011	-3.35157e-011	-3.2321e-011	-3.12759e-011	-3.0225e-011	-2.93208e-011	-2.85863e-011	-2.76614e-011	-2.70654e-011	-2.64772e-011	-2.58617e-011	
FineR10	-1.18758e-010	-9.21344e-011	-7.57999e-011	-6.42172e-011	-5.52609e-011	-4.82711e-011	-4.25915e-011	-3.78253e-011	-3.4095e-011	-3.08454e-011	-2.81562e-011	-2.58116e-011	-2.37038e-011	-2.15935e-011	-2.01201e-011	-1.8623e-011	-1.7267e-011	-1.62419e-011	-1.50308e-011	-1.41464e-011	-1.32457e-011	-1.25093e-011	-1.17737e-011	-1.09966e-011	-1.04043e-011	-9.79377e-012	
FineR20	-1.11446e-010	-8.49474e-011	-6.86537e-011	-5.70226e-011	-4.80747e-011	-4.10897e-011	-3.54161e-011	-3.08186e-011	-2.69506e-011	-2.38474e-011	-2.10181e-011	-1.84666e-011	-1.63848e-011	-1.46068e-011	-1.29676e-011	-1.14721e-011	-1.01197e-011	-9.09819e-012	-8.05288e-012	-6.82047e-012	-6.10435e-012	-5.37026e-012	-4.61423e-012	-3.8574e-012	-3.26571e-012	-2.67604e-012	
FineR30	-1.07193e-010	-8.07073e-011	-6.47098e-011	-5.29229e-011	-4.38463e-011	-3.68409e-011	-3.11708e-011	-2.6737e-011	-2.28499e-011	-1.96075e-011	-1.69236e-011	-1.43979e-011	-1.22944e-011	-1.05398e-011	-8.73852e-012	-7.40953e-012	-6.05795e-012	-5.03646e-012	-3.82678e-012	-2.78134e-012	-2.04825e-012	-1.29162e-012	-5.56568e-013	1.99687e-013	7.90895e-013	1.38041e-012	
FineR40	-1.04561e-010	-7.79299e-011	-6.19373e-011	-5.01536e-011	-4.12113e-011	-3.42342e-011	-2.85671e-011	-2.41129e-011	-2.01108e-011	-1.68227e-011	-1.41627e-011	-1.18036e-011	-9.70128e-012	-7.76084e-012	-6.12598e-012	-4.63251e-012	-3.28163e-012	-2.26115e-012	-1.21773e-012	-1.5343e-013	7.04764e-013	1.46087e-012	2.21591e-012	2.95136e-012	3.39444e-012	4.15204e-012	
FineR50	-1.0271e-010	-7.60457e-011	-5.98936e-011	-4.82739e-011	-3.9174e-011	-3.23644e-011	-2.66969e-011	-2.20812e-011	-1.841e-011	-1.51235e-011	-1.22994e-011	-9.94152e-012	-7.84021e-012	-5.90055e-012	-4.2665e-012	-2.7737e-012	-1.42305e-012	-4.03642e-013	6.39195e-013	1.53726e-012	2.60257e-012	3.31652e-012	4.07124e-012	4.82677e-012	5.24915e-012	6.02675e-012	
FineR60	-1.01214e-010	-7.47133e-011	-5.85731e-011	-4.67911e-011	-3.79949e-011	-3.10479e-011	-2.51954e-011	-2.07687e-011	-1.69347e-011	-1.36263e-011	-1.08031e-011	-8.44615e-012	-6.36768e-012	-4.4284e-012	-2.96136e-012	-1.46916e-012	-2.85316e-013	1.08836e-012	2.10954e-012	3.00736e-012	3.90644e-012	4.61831e-012	5.39361e-012	5.98258e-012	6.71839e-012	7.16131e-012	
FineR70	-1.00262e-010	-7.36009e-011	-5.74298e-011	-4.56569e-011	-3.69428e-011	-2.99425e-011	-2.42539e-011	-1.9665e-011	-1.59478e-011	-1.25228e-011	-9.8436e-012	-7.51009e-012	-5.4102e-012	-3.49366e-012	-1.83878e-012	-5.35477e-013	1.0026e-012	1.99985e-012	3.06329e-012	4.10569e-012	5.00489e-012	5.73878e-012	6.49304e-012	7.24811e-012	7.85653e-012	8.4267e-012	
FineR80	-9.93404e-011	-7.28382e-011	-5.66974e-011	-4.48946e-011	-3.59631e-011	-2.89699e-011	-2.35003e-011	-1.87466e-011	-1.50302e-011	-1.17472e-011	-8.95029e-012	-6.57079e-012	-4.49452e-012	-2.53388e-012	-9.01648e-013	5.89605e-013	1.77251e-012	2.95682e-012	3.97732e-012	4.85327e-012	5.75187e-012	6.67282e-012	7.42681e-012	8.1614e-012	8.60335e-012	9.21214e-012	
FineR90	-9.87586e-011	-7.21041e-011	-5.59369e-011	-4.4167e-011	-3.52352e-011	-2.82666e-011	-2.27697e-011	-1.81565e-011	-1.43002e-011	-1.10418e-011	-8.3634e-012	-5.819e-012	-3.76541e-012	-1.80489e-012	-3.39397e-013	1.12973e-012	2.5003e-012	3.68535e-012	4.53829e-012	5.60294e-012	6.50138e-012	7.25431e-012	7.98769e-012	8.7424e-012	9.33146e-012	9.92029e-012	
FineR100	-9.79906e-011	-7.1377e-011	-5.53627e-011	-4.35949e-011	-3.46648e-011	-2.76975e-011	-2.22016e-011	-1.75894e-011	-1.37339e-011	-1.0453e-011	-7.79824e-012	-5.27691e-012	-3.20118e-012	-1.26339e-012	2.24119e-013	1.71473e-012	3.06328e-012	4.22681e-012	5.28975e-012	6.33162e-012	7.06347e-012	7.79503e-012	8.52837e-012	9.3041e-012	9.89297e-012	1.04817e-011	
FineR110	-9.76368e-011	-7.09573e-011	-5.48219e-011	-4.32142e-011	-3.42849e-011	-2.73184e-011	-2.16574e-011	-1.70475e-011	-1.33578e-011	-9.90984e-012	-7.25537e-012	-4.71167e-012	-2.63634e-012	-8.42762e-013	5.99902e-013	2.09034e-012	3.43874e-012	4.62374e-012	5.83133e-012	6.70666e-012	7.60481e-012	8.35753e-012	8.92423e-012	9.67872e-012	1.0434e-011	1.08562e-011	
FineR120	-9.70964e-011	-7.04093e-011	-5.44396e-011	-4.26991e-011	-3.37687e-011	-2.67487e-011	-2.12788e-011	-1.66691e-011	-1.2814e-011	-9.53233e-012	-6.6891e-012	-4.50037e-012	-2.42556e-012	-4.88579e-013	1.14265e-012	2.633e-012	3.98134e-012	4.99899e-012	6.20634e-012	7.08141e-012	7.97935e-012	8.73335e-012	9.46653e-012	1.0221e-011	1.0809e-011	1.13984e-011	
FineR130	-9.67429e-011	-7.02491e-011	-5.40856e-011	-4.24481e-011	-3.35213e-011	-2.65568e-011	-2.10633e-011	-1.64529e-011	-1.24331e-011	-9.1767e-012	-6.49988e-012	-3.95692e-012	-1.88202e-012	-1.11601e-013	1.68571e-012	2.82073e-012	4.19076e-012	5.54131e-012	6.41456e-012	7.47845e-012	8.33407e-012	9.08665e-012	9.84004e-012	1.04075e-011	1.11838e-011	1.17724e-011	
FineR140	-9.65021e-011	-6.98588e-011	-5.36983e-011	-4.20938e-011	-3.31669e-011	-2.61747e-011	-2.06822e-011	-1.60983e-011	-1.22445e-011	-8.7978e-012	-6.1445e-012	-3.60213e-012	-1.52723e-012	2.43202e-013	1.87391e-012	3.19757e-012	4.52371e-012	5.72888e-012	6.76943e-012	7.8118e-012	8.56322e-012	9.46201e-012	1.0195e-011	1.07826e-011	1.13693e-011	1.21672e-011	
FineR150	-9.63039e-011	-6.9663e-011	-5.3663e-011	-4.17043e-011	-3.29456e-011	-2.58174e-011	-2.03254e-011	-1.57419e-011	-1.18884e-011	-8.77308e-012	-5.76598e-012	-3.57842e-012	-1.50447e-012	4.54095e-013	2.08436e-012	3.55187e-012	4.89968e-012	6.10452e-012	7.14475e-012	8.01996e-012	8.8959e-012	9.81612e-012	1.05693e-011	1.11366e-011	1.17444e-011	1.23346e-011	
FineR160	-9.59404e-011	-6.93019e-011	-5.33033e-011	-4.15419e-011	-3.27492e-011	-2.57883e-011	-2.01344e-011	-1.55258e-011	-1.15075e-011	-8.41724e-012	-5.57653e-012	-3.22339e-012	-1.14929e-012	6.42805e-013	2.43923e-012	3.7397e-012	4.92077e-012	6.29259e-012	7.33269e-012	8.20696e-012	9.10421e-012	9.83578e-012	1.07569e-011	1.13426e-011	1.19318e-011	1.25188e-011	
FineR170	-9.57325e-011	-6.9099e-011	-5.31035e-011	-4.13445e-011	-3.25826e-011	-2.56217e-011	-1.99386e-011	-1.53592e-011	-1.13173e-011	-8.22742e-012	-5.41009e-012	-3.03383e-012	-9.37567e-013	9.75473e-013	2.60557e-012	4.09501e-012	5.44258e-012	6.48074e-012	7.52071e-012	8.56138e-012	9.29199e-012	1.00235e-011	1.09231e-011	1.16983e-011	1.22847e-011	1.27062e-011	
FineR180	-9.5534e-011	-6.8903e-011	-5.29091e-011	-4.11204e-011	-3.22286e-011	-2.54023e-011	-1.97721e-011	-1.50011e-011	-1.11496e-011	-8.03673e-012	-5.22e-012	-2.84425e-012	-7.71139e-013	1.18665e-012	2.81622e-012	4.30518e-012	5.63034e-012	6.64707e-012	7.70801e-012	8.74936e-012	9.64642e-012	1.02102e-011	1.1131e-011	1.16964e-011	1.24722e-011	1.28924e-011	
FineR190	-9.55327e-011	-6.88654e-011	-5.27093e-011	-4.09537e-011	-3.20329e-011	-2.50456e-011	-1.95836e-011	-1.49764e-011	-1.09594e-011	-7.70526e-012	-5.03037e-012	-2.65489e-012	-5.81969e-013	1.3531e-012	2.98265e-012	4.4716e-012	5.6523e-012	6.83464e-012	7.87436e-012	8.91479e-012	9.66679e-012	1.05445e-011	1.12974e-011	1.20724e-011	1.26585e-011	1.32483e-011	
FineR200	-9.51703e-011	-6.86988e-011	-5.2549e-011	-4.07562e-011	-3.20319e-011	-2.48789e-011	-1.93904e-011	-1.47841e-011	-1.09351e-011	-7.68065e-012	-4.8402e-012	-2.46577e-012	-3.93035e-013	1.5196e-012	2.98272e-012	4.49332e-012	5.84015e-012	7.00104e-012	8.04075e-012	9.10397e-012	1.0001e-011	1.07324e-011	1.14852e-011	1.20721e-011	1.26595e-011	1.34359e-011	
FineR210	-9.51689e-011	-6.85108e-011	-5.23544e-011	-4.07858e-011	-3.18393e-011	-2.48528e-011	-1.92256e-011	-1.46211e-011	-1.07684e-011	-7.49061e-012	-4.83981e-012	-2.2992e-012	-2.26489e-013	1.70842e-012	3.3382e-012	4.63808e-012	6.00661e-012	7.21139e-012	8.06246e-012	9.10382e-012	1.01674e-011	1.07526e-011	1.14849e-011	1.22385e-011	1.30142e-011	1.34356e-011	
FineR220	-9.48159e-011	-6.83441e-011	-5.21941e-011	-4.05934e-011	-3.16735e-011	-2.45236e-011	-1.9035e-011	-1.44287e-011	-1.05785e-011	-7.32518e-012	-4.65088e-012	-2.29887e-012	-2.03521e-013	1.73114e-012	3.36031e-012	4.82672e-012	6.17372e-012	7.21137e-012	8.41738e-012	9.292e-012	1.01888e-011	1.1087e-011	1.18397e-011	1.24266e-011	1.30139e-011	1.36219e-011	
FineR230	-9.48466e-011	-6.83064e-011	-5.21928e-011	-4.03998e-011	-3.14808e-011	-2.4495e-011	-1.90342e-011	-1.42641e-011	-1.05779e-011	-7.13502e-012	-4.48422e-012	-2.10985e-012	1.29133e-013	1.89772e-012	3.52687e-012	4.84902e-012	6.19518e-012	7.37788e-012	8.41733e-012	9.45859e-012	1.03771e-011	1.11072e-011	1.18395e-011	1.2593e-011	1.3182e-011	1.379e-011	
FineR240	-9.48037e-011	-6.81478e-011	-5.20273e-011	-4.02342e-011	-3.12892e-011	-2.44664e-011	-1.88409e-011	-1.4262e-011	-1.0388e-011	-7.13379e-012	-4.29479e-012	-1.94303e-012	1.29438e-013	2.06433e-012	3.71567e-012	5.18194e-012	6.36172e-012	7.56638e-012	8.60575e-012	9.66761e-012	1.05436e-011	1.1107e-011	1.20277e-011	1.25928e-011	1.33685e-011	1.37897e-011	
FineR250	-9.46478e-011	-6.811e-011	-5.19928e-011	-4.0233e-011	-3.1314e-011	-2.43029e-011	-1.87014e-011	-1.4071e-011	-1.02213e-011	-6.94413e-012	-4.29391e-012	-1.75379e-012	3.18524e-013	2.06433e-012	3.69346e-012	5.18206e-012	6.52891e-012	7.56561e-012	8.79325e-012	9.64579e-012	1.05424e-011	1.14619e-011	1.20478e-011	1.27809e-011	1.33668e-011	1.39764e-011	
MinCout:	-1.11601e-013	FineR:	130	FineC:	130

	FineC120	FineC121	FineC122	FineC123	FineC124	FineC125	FineC126	FineC127	FineC128	FineC129	FineC130	FineC131	FineC132	FineC133	FineC134	FineC135	FineC136	FineC137	FineC138	FineC139	FineC140	
FineR140	-1.69313e-012	-1.54961e-012	-1.40604e-012	-1.09618e-012	-9.52512e-013	-8.08792e-013	-6.65022e-013	-1.88668e-013	-6.71492e-014	-6.71492e-014	7.68211e-014	3.87122e-013	5.31195e-013	6.75318e-013	8.19489e-013	1.13001e-012	1.27429e-012	1.25204e-012	1.56298e-012	1.56283e-012	1.89573e-012	
FineR141	-1.71587e-012	-1.54961e-012	-1.23981e-012	-1.09618e-012	-9.52512e-013	-8.08792e-013	-4.98767e-013	-3.54943e-013	-4.47661e-014	9.91222e-014	2.43098e-013	3.87122e-013	5.31195e-013	8.4161e-013	1.00807e-012	9.85786e-013	1.13001e-012	1.25204e-012	1.58492e-012	1.7293e-012	1.87372e-012	
FineR142	-1.67057e-012	-1.38353e-012	-1.21729e-012	-1.07369e-012	-9.30033e-013	-6.42541e-013	-4.98824e-013	-3.32522e-013	-4.48045e-014	1.21505e-013	2.43098e-013	4.09467e-013	6.97547e-013	8.63916e-013	1.00807e-012	1.15228e-012	1.29653e-012	1.27429e-012	1.58492e-012	1.7293e-012	1.87372e-012	
FineR143	-1.52706e-012	-1.38353e-012	-1.23994e-012	-1.0963e-012	-7.63788e-013	-6.42613e-013	-4.76326e-013	-3.54987e-013	-6.72226e-014	9.91256e-014	2.65462e-013	5.53455e-013	7.19808e-013	8.63916e-013	9.85879e-013	1.13012e-012	1.29631e-012	1.44059e-012	1.58508e-012	1.75151e-012	2.06224e-012	
FineR144	-1.5045e-012	-1.38353e-012	-1.23994e-012	-9.30043e-013	-7.86352e-013	-6.42613e-013	-4.98824e-013	-1.88707e-013	-4.4815e-014	9.91256e-014	2.43115e-013	5.53455e-013	6.97547e-013	8.63916e-013	1.03036e-012	1.15208e-012	1.29631e-012	1.46284e-012	1.60715e-012	1.8958e-012	2.06224e-012	
FineR145	-1.52722e-012	-1.36098e-012	-1.07368e-012	-9.0754e-013	-7.63868e-013	-6.20148e-013	-3.10104e-013	-1.6628e-013	-4.4815e-014	2.65416e-013	4.09411e-013	5.75804e-013	7.19878e-013	8.63853e-013	1.008e-012	1.1522e-012	1.29644e-012	1.44073e-012	1.77364e-012	1.91802e-012	2.06245e-012	
FineR146	-1.52722e-012	-1.19486e-012	-1.05127e-012	-9.30142e-013	-7.86438e-013	-4.76396e-013	-3.10137e-013	-1.88731e-013	1.43878e-013	2.87804e-013	4.3178e-013	5.75804e-013	8.86184e-013	8.63853e-013	1.008e-012	1.1522e-012	1.29644e-012	1.62931e-012	1.77364e-012	1.91802e-012	1.8958e-012	
FineR147	-1.3384e-012	-1.19486e-012	-1.05127e-012	-9.07633e-013	-6.20154e-013	-4.53878e-013	-3.10104e-013	-1.88731e-013	1.43878e-013	2.65439e-013	4.3178e-013	7.19825e-013	7.19825e-013	8.63937e-013	1.03031e-012	1.17449e-012	1.46291e-012	1.60722e-012	1.77364e-012	1.75141e-012	1.8958e-012	
FineR148	-1.3384e-012	-1.19486e-012	-1.05127e-012	-7.41355e-013	-5.97665e-013	-4.53925e-013	-4.76396e-013	0	1.21479e-013	2.87832e-013	4.3178e-013	7.64455e-013	7.19825e-013	8.63937e-013	1.0081e-012	1.31864e-012	1.46291e-012	1.60722e-012	1.77382e-012	1.91793e-012	2.06235e-012	
FineR149	-1.50447e-012	-1.19486e-012	-8.84997e-013	-7.41355e-013	-5.97665e-013	-4.53871e-013	-3.10107e-013	0	1.43892e-013	2.87832e-013	5.98137e-013	5.75762e-013	7.19825e-013	8.63937e-013	1.17443e-012	1.34094e-012	1.48519e-012	1.62948e-012	1.77357e-012	1.93998e-012	2.06235e-012	
FineR150	-1.50447e-012	-1.1947e-012	-1.05114e-012	-9.07525e-013	-7.63944e-013	-4.31381e-013	-2.87637e-013	-1.66294e-013	3.10196e-013	2.87783e-013	5.98137e-013	5.75762e-013	7.19825e-013	1.0526e-012	1.19675e-012	1.34094e-012	1.48519e-012	1.79583e-012	1.77357e-012	1.91793e-012	2.06235e-012	
FineR151	-1.33835e-012	-1.19482e-012	-1.05124e-012	-8.84997e-013	-5.75077e-013	-4.31381e-013	-2.87637e-013	-1.43843e-013	3.10196e-013	3.10196e-013	4.54142e-013	7.42077e-013	9.08501e-013	1.0526e-012	1.19675e-012	1.34094e-012	1.65153e-012	1.62925e-012	1.77357e-012	1.91793e-012	2.25093e-012	
FineR152	-1.33835e-012	-1.17213e-012	-1.02859e-012	-7.41327e-013	-5.75077e-013	-4.31381e-013	-2.87637e-013	2.24512e-014	3.10229e-013	2.87811e-013	6.20452e-013	7.64452e-013	8.86234e-013	1.0526e-012	1.17455e-012	1.50743e-012	1.65153e-012	1.62941e-012	1.79583e-012	2.10652e-012	2.22893e-012	
FineR153	-1.31576e-012	-1.19482e-012	-1.02869e-012	-7.41327e-013	-5.97647e-013	-4.31381e-013	-1.21348e-013	0	1.66299e-013	2.87811e-013	5.98119e-013	7.42152e-013	8.86234e-013	1.0526e-012	1.36308e-012	1.31857e-012	1.48513e-012	1.65153e-012	1.77357e-012	2.0845e-012	2.22893e-012	
FineR154	-1.31576e-012	-1.17225e-012	-8.84958e-013	-7.41327e-013	-5.97647e-013	-2.87615e-013	-1.43832e-013	0	3.102e-013	4.54135e-013	5.98119e-013	7.42152e-013	1.05257e-012	1.19671e-012	1.17437e-012	1.34076e-012	1.48513e-012	1.81787e-012	1.94011e-012	2.10652e-012	2.25093e-012	
FineR155	-1.17207e-012	-1.00597e-012	-8.84958e-013	-7.18794e-013	-4.08799e-013	-2.87615e-013	-1.43832e-013	2.24512e-014	3.32598e-013	4.54135e-013	5.98119e-013	7.64452e-013	1.07493e-012	1.05247e-012	1.21892e-012	1.36308e-012	1.67361e-012	1.79577e-012	1.96217e-012	1.93991e-012	2.25064e-012	
FineR156	-1.14948e-012	-1.02854e-012	-8.84958e-013	-5.75035e-013	-4.08799e-013	-2.42609e-013	-2.87588e-013	1.88745e-013	3.32598e-013	4.76501e-013	7.86761e-013	9.30767e-013	9.08392e-013	1.05247e-012	1.19659e-012	1.50709e-012	1.65132e-012	1.79559e-012	1.79559e-012	2.10626e-012	2.25064e-012	
FineR157	-1.31543e-012	-1.17196e-012	-8.62175e-013	-7.18602e-013	-4.08799e-013	-4.31308e-013	-1.21304e-013	2.24704e-014	3.32598e-013	3.10166e-013	6.20392e-013	7.64368e-013	9.08392e-013	1.05247e-012	1.36291e-012	1.50709e-012	1.65132e-012	1.65132e-012	1.96193e-012	2.084e-012	2.25064e-012	
FineR158	-1.31543e-012	-1.0057e-012	-8.62175e-013	-7.18602e-013	-5.74979e-013	-2.6503e-013	-1.21304e-013	2.24704e-014	4.98898e-013	4.76466e-013	6.20392e-013	7.64368e-013	9.30667e-013	1.24101e-012	1.3851e-012	1.52925e-012	1.50693e-012	1.81746e-012	1.96173e-012	2.10604e-012	2.25041e-012	
FineR159	-1.2927e-012	-1.0057e-012	-8.39531e-013	-7.18602e-013	-4.08707e-013	-2.42504e-013	-9.88114e-014	2.112e-013	3.32549e-013	4.76413e-013	6.20326e-013	9.52967e-013	1.09696e-012	1.24101e-012	1.3851e-012	1.36277e-012	1.67325e-012	1.81746e-012	1.96173e-012	2.10604e-012	2.41674e-012	
FineR160	-1.12647e-012	-9.83023e-013	-8.39531e-013	-5.29742e-013	-3.86148e-013	-2.65007e-013	-9.88114e-014	2.112e-013	3.32549e-013	4.9884e-013	8.09019e-013	9.52967e-013	1.09696e-012	1.07459e-012	1.38496e-012	1.52908e-012	1.67325e-012	1.81746e-012	1.984e-012	2.29462e-012	2.43897e-012	
MinCout:	0	FineR:	148	FineC:	127

