	CoarseC0	CoarseC10	CoarseC20	CoarseC30	CoarseC40	CoarseC50	CoarseC60	CoarseC70	CoarseC80	CoarseC90	CoarseC100	CoarseC110	CoarseC120	CoarseC130	CoarseC140	CoarseC150	CoarseC160	CoarseC170	CoarseC180	CoarseC190	CoarseC200	CoarseC210	CoarseC220	CoarseC230	CoarseC240	CoarseC250	
CoarseR0	-1.04481e-009	-9.97371e-010	-9.53446e-010	-9.15213e-010	-8.8264e-010	-8.55505e-010	-8.32193e-010	-8.12408e-010	-7.95123e-010	-7.80138e-010	-7.66983e-010	-7.55681e-010	-7.45714e-010	-7.37078e-010	-7.29342e-010	-7.22686e-010	-7.16697e-010	-7.11699e-010	-7.07397e-010	-7.03603e-010	-7.00461e-010	-6.97843e-010	-6.9561e-010	-6.93913e-010	-6.92554e-010	-6.92004e-010	
CoarseR10	-7.90801e-010	-7.40271e-010	-6.99559e-010	-6.63739e-010	-6.33676e-010	-6.08376e-010	-5.86541e-010	-5.67746e-010	-5.5136e-010	-5.37237e-010	-5.24871e-010	-5.13787e-010	-5.04487e-010	-4.96402e-010	-4.89417e-010	-4.83376e-010	-4.78206e-010	-4.74028e-010	-4.70603e-010	-4.67504e-010	-4.65208e-010	-4.63216e-010	-4.61887e-010	-4.60954e-010	-4.60303e-010	-4.60056e-010	
CoarseR20	-6.26252e-010	-5.76397e-010	-5.37324e-010	-5.03461e-010	-4.7498e-010	-4.50936e-010	-4.30428e-010	-4.12589e-010	-3.97169e-010	-3.83764e-010	-3.72043e-010	-3.62195e-010	-3.53559e-010	-3.46246e-010	-3.40037e-010	-3.34845e-010	-3.30253e-010	-3.26522e-010	-3.23506e-010	-3.2112e-010	-3.19279e-010	-3.18083e-010	-3.17128e-010	-3.16998e-010	-3.17251e-010	-3.17663e-010	
CoarseR30	-5.08758e-010	-4.60649e-010	-4.22804e-010	-3.90702e-010	-3.63585e-010	-3.4067e-010	-3.21045e-010	-3.04023e-010	-2.89419e-010	-2.76944e-010	-2.6609e-010	-2.5693e-010	-2.48918e-010	-2.42273e-010	-2.36662e-010	-2.31899e-010	-2.27858e-010	-2.24854e-010	-2.22618e-010	-2.20911e-010	-2.19809e-010	-2.19294e-010	-2.19351e-010	-2.19684e-010	-2.20769e-010	-2.22167e-010	
CoarseR40	-4.21613e-010	-3.74224e-010	-3.37951e-010	-3.06959e-010	-2.8083e-010	-2.58881e-010	-2.40028e-010	-2.24035e-010	-2.10151e-010	-1.98394e-010	-1.88289e-010	-1.79503e-010	-1.72194e-010	-1.66083e-010	-1.60991e-010	-1.5707e-010	-1.53745e-010	-1.51252e-010	-1.49677e-010	-1.48823e-010	-1.48394e-010	-1.48837e-010	-1.49718e-010	-1.51195e-010	-1.53402e-010	-1.56057e-010	
CoarseR50	-3.54027e-010	-3.06947e-010	-2.71966e-010	-2.41853e-010	-2.16584e-010	-1.95591e-010	-1.77595e-010	-1.62243e-010	-1.48876e-010	-1.37756e-010	-1.28152e-010	-1.2002e-010	-1.13205e-010	-1.07742e-010	-1.03468e-010	-1.00062e-010	-9.73518e-011	-9.57046e-011	-9.47857e-011	-9.48998e-011	-9.56084e-011	-9.70361e-011	-9.90483e-011	-1.01957e-010	-1.05408e-010	-1.09792e-010	
CoarseR60	-2.98814e-010	-2.52747e-010	-2.18586e-010	-1.89569e-010	-1.65274e-010	-1.44907e-010	-1.27508e-010	-1.12632e-010	-9.98448e-011	-8.93711e-011	-8.03693e-011	-7.28818e-011	-6.67042e-011	-6.17119e-011	-5.79189e-011	-5.51433e-011	-5.34241e-011	-5.27708e-011	-5.26656e-011	-5.36126e-011	-5.54426e-011	-5.801e-011	-6.16346e-011	-6.61262e-011	-7.1769e-011	-7.9728e-011	
CoarseR70	-2.52961e-010	-2.07858e-010	-1.74637e-010	-1.4648e-010	-1.22786e-010	-1.03157e-010	-8.63452e-011	-7.20014e-011	-5.98383e-011	-4.97965e-011	-4.14062e-011	-3.41976e-011	-2.88116e-011	-2.4454e-011	-2.13126e-011	-1.93681e-011	-1.83101e-011	-1.83043e-011	-1.93448e-011	-2.16338e-011	-2.46233e-011	-2.89847e-011	-3.48438e-011	-4.32451e-011	-5.17753e-011	-5.98641e-011	
CoarseR80	-2.14107e-010	-1.7011e-010	-1.37729e-010	-1.10172e-010	-8.7167e-011	-6.79087e-011	-5.16372e-011	-3.77339e-011	-2.59432e-011	-1.63434e-011	-8.5622e-012	-2.13746e-012	2.9232e-012	6.46342e-012	8.96362e-012	1.00685e-011	1.02858e-011	9.27547e-012	7.05066e-012	3.46466e-012	-1.66621e-012	-9.56051e-012	-1.83997e-011	-2.69528e-011	-3.57199e-011	-4.38819e-011	
CoarseR90	-1.81024e-010	-1.38051e-010	-1.06172e-010	-7.933e-011	-5.68667e-011	-3.79691e-011	-2.20784e-011	-8.71578e-012	2.27932e-012	1.16414e-011	1.91243e-011	2.49235e-011	2.95218e-011	3.2395e-011	3.40645e-011	3.44715e-011	3.35106e-011	3.13032e-011	2.73938e-011	2.15184e-011	1.24915e-011	3.64499e-012	-5.61511e-012	-1.43654e-011	-2.24871e-011	-3.01629e-011	
CoarseR100	-1.51937e-010	-1.09673e-010	-7.84475e-011	-5.21067e-011	-2.99692e-011	-1.16257e-011	4.01095e-012	1.68117e-011	2.75544e-011	3.63014e-011	4.31461e-011	4.84557e-011	5.23996e-011	5.4783e-011	5.55614e-011	5.51375e-011	5.2953e-011	4.90441e-011	4.22961e-011	3.29146e-011	2.37822e-011	1.4244e-011	5.55263e-012	-2.83571e-012	-1.03899e-011	-1.74813e-011	
CoarseR110	-1.26685e-010	-8.50435e-011	-5.4327e-011	-2.84479e-011	-6.67733e-012	1.13073e-011	2.64329e-011	3.89568e-011	4.96107e-011	5.77298e-011	6.42732e-011	6.9107e-011	7.21712e-011	7.38571e-011	7.37555e-011	7.20958e-011	6.85517e-011	6.13051e-011	5.1919e-011	4.2349e-011	3.28966e-011	2.39132e-011	1.56428e-011	7.85107e-012	3.92042e-013	-6.26047e-012	
CoarseR120	-1.04406e-010	-6.31558e-011	-3.29048e-011	-7.38247e-012	1.3896e-011	3.16796e-011	4.65216e-011	5.88102e-011	6.88428e-011	7.68208e-011	8.29117e-011	8.7227e-011	8.97864e-011	9.04041e-011	8.94407e-011	8.63647e-011	7.95864e-011	7.00384e-011	6.03039e-011	5.05885e-011	4.1346e-011	3.29928e-011	2.49905e-011	1.7691e-011	1.07135e-011	4.25334e-012	
CoarseR130	-8.43714e-011	-4.38012e-011	-1.39964e-011	1.15157e-011	3.26186e-011	4.98591e-011	6.44795e-011	7.63285e-011	8.61081e-011	9.36077e-011	9.91537e-011	1.02957e-010	1.04817e-010	1.04871e-010	1.0248e-010	9.69405e-011	8.75725e-011	7.76929e-011	6.76649e-011	5.816e-011	4.95898e-011	4.15439e-011	3.38589e-011	2.68766e-011	2.0071e-011	1.39661e-011	
CoarseR140	-6.66219e-011	-2.63072e-011	3.18829e-012	2.81889e-011	4.90803e-011	6.62751e-011	8.06671e-011	9.24156e-011	1.0169e-010	1.08891e-010	1.1393e-010	1.17211e-010	1.18132e-010	1.17136e-010	1.1336e-010	1.04208e-010	9.43113e-011	8.39753e-011	7.45935e-011	6.56013e-011	5.73476e-011	4.94633e-011	4.21347e-011	3.5521e-011	2.90956e-011	2.30261e-011	
CoarseR150	-5.0404e-011	-1.04959e-011	1.86828e-011	4.37229e-011	6.44184e-011	8.11949e-011	9.53193e-011	1.06617e-010	1.15945e-010	1.22612e-010	1.27297e-010	1.29864e-010	1.30066e-010	1.27987e-010	1.2069e-010	1.10901e-010	1.00419e-010	9.03986e-011	8.13256e-011	7.26536e-011	6.45761e-011	5.72556e-011	5.0307e-011	4.37092e-011	3.75237e-011	3.18639e-011	
CoarseR160	-3.5629e-011	3.73607e-012	3.31165e-011	5.76699e-011	7.81345e-011	9.51884e-011	1.08915e-010	1.20093e-010	1.28746e-010	1.35271e-010	1.39421e-010	1.41395e-010	1.40877e-010	1.36756e-010	1.26889e-010	1.16702e-010	1.06386e-010	9.6891e-011	8.79827e-011	7.97019e-011	7.20116e-011	6.46932e-011	5.77814e-011	5.16128e-011	4.56469e-011	4.0057e-011	
CoarseR170	-2.22586e-011	1.68857e-011	4.59344e-011	7.06156e-011	9.09075e-011	1.07513e-010	1.2128e-010	1.32179e-010	1.40859e-010	1.46865e-010	1.50476e-010	1.51741e-010	1.50311e-010	1.42779e-010	1.32807e-010	1.22357e-010	1.12185e-010	1.03048e-010	9.45448e-011	8.62593e-011	7.87729e-011	7.18983e-011	6.5403e-011	5.91151e-011	5.34079e-011	4.80941e-011	
CoarseR180	-1.02207e-011	2.91554e-011	5.785e-011	8.2343e-011	1.02598e-010	1.19173e-010	1.32629e-010	1.43597e-010	1.51767e-010	1.57584e-010	1.60649e-010	1.61355e-010	1.57999e-010	1.48416e-010	1.38058e-010	1.2759e-010	1.18e-010	1.09055e-010	1.00957e-010	9.30968e-011	8.56666e-011	7.89982e-011	7.2593e-011	6.65846e-011	6.07619e-011	5.57217e-011	
CoarseR190	1.09419e-012	4.02414e-011	6.89886e-011	9.32796e-011	1.13448e-010	1.29959e-010	1.43348e-010	1.53969e-010	1.6195e-010	1.67417e-010	1.70122e-010	1.69874e-010	1.63612e-010	1.5411e-010	1.43072e-010	1.33192e-010	1.23813e-010	1.15106e-010	1.07035e-010	9.93945e-011	9.24061e-011	8.58411e-011	7.93149e-011	7.35766e-011	6.8239e-011	6.29359e-011	
CoarseR200	1.15144e-011	5.03817e-011	7.89153e-011	1.03242e-010	1.23353e-010	1.39776e-010	1.53042e-010	1.63496e-010	1.71393e-010	1.76468e-010	1.78615e-010	1.77487e-010	1.69097e-010	1.58867e-010	1.48413e-010	1.38566e-010	1.29409e-010	1.20887e-010	1.13094e-010	1.05558e-010	9.86368e-011	9.21417e-011	8.60819e-011	8.04347e-011	7.50241e-011	7.02077e-011	
CoarseR210	2.08763e-011	5.97757e-011	8.85575e-011	1.12627e-010	1.32723e-010	1.49226e-010	1.62556e-010	1.72905e-010	1.80421e-010	1.85135e-010	1.86717e-010	1.83723e-010	1.7443e-010	1.63741e-010	1.53366e-010	1.43878e-010	1.35165e-010	1.26535e-010	1.19181e-010	1.11712e-010	1.05056e-010	9.86882e-011	9.29213e-011	8.72031e-011	8.20792e-011	7.72041e-011	
CoarseR220	2.97819e-011	6.8553e-011	9.71402e-011	1.21594e-010	1.41586e-010	1.57797e-010	1.70861e-010	1.81247e-010	1.886e-010	1.92999e-010	1.94168e-010	1.89043e-010	1.79296e-010	1.68522e-010	1.58546e-010	1.49135e-010	1.40467e-010	1.32502e-010	1.24863e-010	1.17856e-010	1.1131e-010	1.05034e-010	9.91699e-011	9.37677e-011	8.85682e-011	8.36163e-011	
CoarseR230	3.78295e-011	7.65132e-011	1.05263e-010	1.29309e-010	1.49626e-010	1.65952e-010	1.78884e-010	1.89309e-010	1.96516e-010	2.00513e-010	2.00999e-010	1.9408e-010	1.83959e-010	1.73403e-010	1.63447e-010	1.54511e-010	1.46126e-010	1.38033e-010	1.30662e-010	1.23543e-010	1.17332e-010	1.11153e-010	1.05441e-010	9.99362e-011	9.48982e-011	9.02882e-011	
CoarseR240	4.50644e-011	8.39719e-011	1.12602e-010	1.36783e-010	1.56965e-010	1.73232e-010	1.86417e-010	1.96502e-010	2.03544e-010	2.07412e-010	2.0715e-010	1.98978e-010	1.88415e-010	1.78145e-010	1.68449e-010	1.59398e-010	1.51273e-010	1.43269e-010	1.36212e-010	1.29411e-010	1.23104e-010	1.17061e-010	1.1146e-010	1.06101e-010	1.01182e-010	9.65026e-011	
CoarseR250	5.20165e-011	9.0824e-011	1.19577e-010	1.43928e-010	1.64111e-010	1.80425e-010	1.93458e-010	2.03455e-010	2.10523e-010	2.13849e-010	2.12603e-010	2.0383e-010	1.9301e-010	1.82987e-010	1.73405e-010	1.6482e-010	1.56574e-010	1.48881e-010	1.41721e-010	1.35067e-010	1.28811e-010	1.23107e-010	1.17459e-010	1.12236e-010	1.07278e-010	1.02725e-010	
MinCout:	3.92042e-013	CoarseR:	110	CoarseC:	240

	CoarseC40	CoarseC41	CoarseC42	CoarseC43	CoarseC44	CoarseC45	CoarseC46	CoarseC47	CoarseC48	CoarseC49	CoarseC50	CoarseC51	CoarseC52	CoarseC53	CoarseC54	CoarseC55	CoarseC56	CoarseC57	CoarseC58	CoarseC59	CoarseC60	
CoarseR100	-2.98288e-011	-2.81574e-011	-2.60272e-011	-2.42105e-011	-2.22207e-011	-2.03978e-011	-1.87383e-011	-1.6744e-011	-1.51039e-011	-1.32709e-011	-1.14563e-011	-9.95713e-012	-8.30713e-012	-6.46407e-012	-4.95891e-012	-3.48941e-012	-1.80947e-012	-4.85208e-013	1.17923e-012	2.5279e-012	4.03068e-012	
CoarseR101	-2.73138e-011	-2.58139e-011	-2.35167e-011	-2.16751e-011	-1.98998e-011	-1.78859e-011	-1.62536e-011	-1.42569e-011	-1.26172e-011	-1.09537e-011	-9.13963e-012	-7.4713e-012	-5.82168e-012	-4.16959e-012	-2.66117e-012	-1.17547e-012	5.04092e-013	1.84817e-012	3.49619e-012	4.83981e-012	6.34175e-012	
CoarseR102	-2.51685e-011	-2.34757e-011	-2.12047e-011	-1.93626e-011	-1.73736e-011	-1.57421e-011	-1.37502e-011	-1.20901e-011	-1.02605e-011	-8.43033e-012	-6.61697e-012	-5.11897e-012	-3.49212e-012	-1.81974e-012	-3.12231e-013	1.34391e-012	2.68512e-012	4.34583e-012	5.84214e-012	7.1898e-012	8.66662e-012	
CoarseR103	-2.26257e-011	-2.09592e-011	-1.88306e-011	-1.69898e-011	-1.5026e-011	-1.32027e-011	-1.13798e-011	-9.57526e-012	-7.91504e-012	-6.10483e-012	-4.2938e-012	-2.77249e-012	-1.1242e-012	5.26583e-013	2.03027e-012	3.51829e-012	5.19695e-012	6.53931e-012	8.16155e-012	9.52904e-012	1.08574e-011	
CoarseR104	-2.01178e-011	-1.85705e-011	-1.62981e-011	-1.44594e-011	-1.24715e-011	-1.06956e-011	-9.01809e-012	-7.1919e-012	-5.3853e-012	-3.72332e-012	-2.08077e-012	-4.14163e-013	1.25467e-012	2.90449e-012	4.557e-012	5.87348e-012	7.55153e-012	8.87287e-012	1.05554e-011	1.18814e-011	1.33816e-011	
CoarseR105	-1.79283e-011	-1.64301e-011	-1.41342e-011	-1.22941e-011	-1.03306e-011	-8.31767e-012	-6.66321e-012	-5.02876e-012	-3.20139e-012	-1.39239e-012	2.49846e-013	1.9163e-012	3.58499e-012	5.23454e-012	6.56911e-012	8.22396e-012	9.90177e-012	1.12226e-011	1.27163e-011	1.38907e-011	1.55569e-011	
CoarseR106	-1.57022e-011	-1.38684e-011	-1.17417e-011	-1.00951e-011	-8.10801e-012	-6.14215e-012	-4.46492e-012	-2.66288e-012	-8.35064e-013	8.03705e-013	2.44505e-012	4.11081e-012	5.77881e-012	7.42814e-012	8.93254e-012	1.04154e-011	1.20726e-011	1.34125e-011	1.5054e-011	1.64189e-011	1.77459e-011	
CoarseR107	-1.3321e-011	-1.14871e-011	-9.36091e-012	-7.73803e-012	-5.72798e-012	-3.76227e-012	-2.0856e-012	-2.61133e-013	1.39676e-012	3.03462e-012	4.84501e-012	6.48889e-012	8.00745e-012	9.63453e-012	1.13068e-011	1.28126e-011	1.4277e-011	1.56372e-011	1.72764e-011	1.86213e-011	1.99476e-011	
CoarseR108	-1.09505e-011	-9.42902e-012	-7.32806e-012	-5.34407e-012	-3.52636e-012	-1.70722e-012	-5.44003e-014	1.74715e-012	3.59659e-012	5.23393e-012	6.8962e-012	8.53948e-012	1.02066e-011	1.18542e-011	1.33551e-011	1.48184e-011	1.63236e-011	1.80022e-011	1.93231e-011	2.06675e-011	2.23319e-011	
CoarseR109	-8.87957e-012	-7.04592e-012	-4.92086e-012	-3.1062e-012	-1.29e-012	5.06102e-013	2.35079e-012	4.17452e-012	5.8314e-012	7.46795e-012	9.27723e-012	1.07936e-011	1.24169e-011	1.40859e-011	1.57353e-011	1.72378e-011	1.87246e-011	2.00426e-011	2.1702e-011	2.28928e-011	2.4559e-011	
CoarseR110	-6.65301e-012	-4.84355e-012	-2.71877e-012	-8.80395e-013	1.0815e-012	2.73055e-012	4.57542e-012	6.20618e-012	7.86259e-012	9.86107e-012	1.14997e-011	1.31634e-011	1.46588e-011	1.61351e-011	1.77856e-011	1.92874e-011	2.07712e-011	2.2258e-011	2.37469e-011	2.49181e-011	2.65813e-011	
CoarseR111	-4.43668e-012	-2.77351e-012	-6.49471e-013	1.18839e-012	3.14978e-012	4.96699e-012	6.78843e-012	8.44204e-012	1.01199e-011	1.1925e-011	1.35627e-011	1.52274e-011	1.68704e-011	1.85383e-011	1.98673e-011	2.15175e-011	2.30014e-011	2.43367e-011	2.58056e-011	2.7146e-011	2.866e-011	
CoarseR112	-2.21077e-012	-4.99105e-013	1.45548e-012	3.43771e-012	5.25295e-012	7.04614e-012	8.88959e-012	1.05187e-011	1.21739e-011	1.39787e-011	1.5809e-011	1.7301e-011	1.89657e-011	2.06101e-011	2.19183e-011	2.35901e-011	2.50735e-011	2.64079e-011	2.80461e-011	2.94065e-011	3.07074e-011	
CoarseR113	5.13076e-014	1.56943e-012	3.66804e-012	5.52928e-012	7.4897e-012	9.1358e-012	1.09563e-011	1.27545e-011	1.44093e-011	1.62352e-011	1.78737e-011	1.95358e-011	2.10293e-011	2.26732e-011	2.41716e-011	2.5652e-011	2.7154e-011	2.86405e-011	3.01248e-011	3.14661e-011	3.27842e-011	
CoarseR114	2.1567e-012	3.64989e-012	5.77158e-012	7.58455e-012	9.56761e-012	1.13837e-011	1.32041e-011	1.48539e-011	1.65079e-011	1.83118e-011	1.99474e-011	2.16088e-011	2.31016e-011	2.47477e-011	2.62453e-011	2.77446e-011	2.92053e-011	3.07091e-011	3.20254e-011	3.33623e-011	3.48542e-011	
CoarseR115	4.05269e-012	5.73786e-012	8.03051e-012	9.67172e-012	1.14851e-011	1.3472e-011	1.50964e-011	1.67693e-011	1.8594e-011	2.0226e-011	2.18607e-011	2.35215e-011	2.51646e-011	2.66591e-011	2.83271e-011	2.96353e-011	3.1308e-011	3.26212e-011	3.42764e-011	3.54442e-011	3.69313e-011	
CoarseR116	6.15196e-012	7.66801e-012	9.96013e-012	1.16006e-011	1.35825e-011	1.53752e-011	1.70232e-011	1.88454e-011	2.05195e-011	2.23211e-011	2.39552e-011	2.54446e-011	2.71071e-011	2.87292e-011	3.02253e-011	3.15518e-011	3.3205e-011	3.47074e-011	3.61721e-011	3.73392e-011	3.88479e-011	
CoarseR117	8.0681e-012	9.92427e-012	1.18753e-011	1.36872e-011	1.56686e-011	1.74829e-011	1.93025e-011	2.09524e-011	2.26048e-011	2.44076e-011	2.60411e-011	2.75502e-011	2.91922e-011	3.08333e-011	3.21568e-011	3.36352e-011	3.53069e-011	3.66412e-011	3.82723e-011	3.94386e-011	4.07749e-011	
CoarseR118	1.03357e-011	1.18505e-011	1.39697e-011	1.58043e-011	1.76182e-011	1.9407e-011	2.12263e-011	2.28724e-011	2.45241e-011	2.63504e-011	2.79829e-011	2.9642e-011	3.10888e-011	3.27723e-011	3.40755e-011	3.5721e-011	3.72016e-011	3.85537e-011	4.01887e-011	4.1372e-011	4.26672e-011	
CoarseR119	1.20982e-011	1.38106e-011	1.59287e-011	1.77398e-011	1.95222e-011	2.13384e-011	2.31572e-011	2.48057e-011	2.64532e-011	2.82585e-011	2.98904e-011	3.15731e-011	3.30388e-011	3.46784e-011	3.61724e-011	3.76493e-011	3.91478e-011	4.04577e-011	4.21101e-011	4.32925e-011	4.46094e-011	
CoarseR120	1.40431e-011	1.57018e-011	1.76994e-011	1.94844e-011	2.14672e-011	2.32797e-011	2.4925e-011	2.67457e-011	2.8396e-011	3.00242e-011	3.18281e-011	3.35102e-011	3.49749e-011	3.66375e-011	3.7939e-011	3.96065e-011	4.10858e-011	4.24129e-011	4.40644e-011	4.52283e-011	4.65216e-011	
MinCout:	5.13076e-014	CoarseR:	113	CoarseC:	40

	FineC0	FineC10	FineC20	FineC30	FineC40	FineC50	FineC60	FineC70	FineC80	FineC90	FineC100	FineC110	FineC120	FineC130	FineC140	FineC150	FineC160	FineC170	FineC180	FineC190	FineC200	FineC210	FineC220	FineC230	FineC240	FineC250	
FineR0	-1.41718e-010	-1.12353e-010	-9.46445e-011	-8.19986e-011	-7.25966e-011	-6.49692e-011	-5.90826e-011	-5.42091e-011	-5.02714e-011	-4.67578e-011	-4.38766e-011	-4.13027e-011	-3.91582e-011	-3.71784e-011	-3.55104e-011	-3.39875e-011	-3.26111e-011	-3.13781e-011	-3.03124e-011	-2.94185e-011	-2.85001e-011	-2.75615e-011	-2.69798e-011	-2.61904e-011	-2.54226e-011	-2.49677e-011	
FineR10	-1.25213e-010	-9.58241e-011	-7.84226e-011	-6.59486e-011	-5.63888e-011	-4.90957e-011	-4.29971e-011	-3.83238e-011	-3.42246e-011	-3.08763e-011	-2.79994e-011	-2.54051e-011	-2.32871e-011	-2.13116e-011	-1.96461e-011	-1.8125e-011	-1.67496e-011	-1.55388e-011	-1.44548e-011	-1.35392e-011	-1.26444e-011	-1.1706e-011	-1.09371e-011	-1.01689e-011	-9.75766e-012	-9.11261e-012	
FineR20	-1.17745e-010	-8.85025e-011	-7.11076e-011	-5.86429e-011	-4.9223e-011	-4.19622e-011	-3.58684e-011	-3.11997e-011	-2.7104e-011	-2.35922e-011	-2.08639e-011	-1.82725e-011	-1.59896e-011	-1.41837e-011	-1.25204e-011	-1.10011e-011	-9.62691e-012	-8.58799e-012	-7.33722e-012	-6.27358e-012	-5.33713e-012	-4.61208e-012	-3.99152e-012	-3.24379e-012	-2.62172e-012	-2.02268e-012	
FineR30	-1.13374e-010	-8.43075e-011	-6.69237e-011	-5.42994e-011	-4.50493e-011	-3.76335e-011	-3.17321e-011	-2.68715e-011	-2.29232e-011	-1.9582e-011	-1.67358e-011	-1.41456e-011	-1.20087e-011	-1.02048e-011	-8.35193e-012	-7.00252e-012	-5.65203e-012	-4.27635e-012	-3.19421e-012	-2.28073e-012	-1.38739e-012	-6.2078e-013	3.17378e-013	7.46384e-013	1.51537e-012	2.1374e-012	
FineR40	-1.10577e-010	-8.16725e-011	-6.40967e-011	-5.16064e-011	-4.22284e-011	-3.49508e-011	-2.90531e-011	-2.41955e-011	-2.0106e-011	-1.67662e-011	-1.40418e-011	-1.14777e-011	-9.34226e-012	-7.20216e-012	-5.71064e-012	-4.19356e-012	-2.9676e-012	-1.59331e-012	-5.33353e-013	3.58117e-013	1.29362e-012	2.03845e-012	2.95511e-012	3.57327e-012	4.19404e-012	4.79264e-012	
FineR50	-1.08645e-010	-7.9583e-011	-6.22085e-011	-4.9721e-011	-4.04834e-011	-3.2876e-011	-2.69802e-011	-2.22923e-011	-1.8203e-011	-1.48648e-011	-1.19737e-011	-9.38642e-012	-7.29811e-012	-5.30428e-012	-3.8138e-012	-2.27555e-012	-7.56111e-013	3.01263e-013	1.3605e-012	2.27277e-012	3.33404e-012	4.1015e-012	4.8473e-012	5.6362e-012	6.06455e-012	6.68416e-012	
FineR60	-1.07286e-010	-7.82316e-011	-6.08268e-011	-4.81823e-011	-3.89738e-011	-3.13681e-011	-2.56421e-011	-2.07872e-011	-1.68659e-011	-1.33865e-011	-1.06392e-011	-8.05287e-012	-5.94286e-012	-3.94999e-012	-2.2911e-012	-7.75407e-013	5.73776e-013	1.65257e-012	2.88018e-012	3.94099e-012	4.85443e-012	5.45084e-012	6.21718e-012	6.96365e-012	7.58389e-012	8.20279e-012	
FineR70	-1.0619e-010	-7.70972e-011	-5.96951e-011	-4.72475e-011	-3.78456e-011	-3.04061e-011	-2.46571e-011	-1.98041e-011	-1.57173e-011	-1.23816e-011	-9.51555e-012	-6.90662e-012	-4.79714e-012	-2.80479e-012	-1.14637e-012	1.99323e-013	1.73987e-012	2.77427e-012	4.02363e-012	4.91383e-012	5.82686e-012	6.57046e-012	7.48665e-012	8.10605e-012	8.72428e-012	9.1737e-012	
FineR80	-1.05207e-010	-7.61294e-011	-5.87585e-011	-4.62796e-011	-3.70481e-011	-2.96107e-011	-2.37199e-011	-1.88677e-011	-1.49503e-011	-1.16153e-011	-8.55769e-012	-5.97249e-012	-3.86339e-012	-2.04038e-012	-2.13292e-013	1.13209e-012	2.50332e-012	3.70652e-012	4.76466e-012	5.67608e-012	6.61056e-012	7.33281e-012	8.26966e-012	8.88712e-012	9.48628e-012	1.00835e-011	
FineR90	-1.0478e-010	-7.55402e-011	-5.83063e-011	-4.56961e-011	-3.62723e-011	-2.88654e-011	-2.29477e-011	-1.80968e-011	-1.41565e-011	-1.08477e-011	-7.98204e-012	-5.3974e-012	-3.26547e-012	-1.46628e-012	3.6045e-013	1.87512e-012	3.07634e-012	4.47147e-012	5.35912e-012	6.41872e-012	7.35318e-012	8.0971e-012	8.86295e-012	9.62964e-012	1.00576e-011	1.08474e-011	
FineR100	-1.03872e-010	-7.49815e-011	-5.77549e-011	-4.51125e-011	-3.57205e-011	-2.82849e-011	-2.23956e-011	-1.75447e-011	-1.36044e-011	-1.01018e-011	-7.40561e-012	-4.82146e-012	-2.71327e-012	-8.91183e-013	9.35235e-013	2.4496e-012	3.81976e-012	4.87537e-012	5.93285e-012	6.84373e-012	7.73482e-012	8.67031e-012	9.43602e-012	1.02026e-011	1.06304e-011	1.14201e-011	
FineR110	-1.03468e-010	-7.44308e-011	-5.70356e-011	-4.4561e-011	-3.51344e-011	-2.77009e-011	-2.19821e-011	-1.71327e-011	-1.30489e-011	-9.71586e-012	-6.82874e-012	-4.43724e-012	-2.30601e-012	-3.38325e-013	1.3413e-012	2.85516e-012	4.22489e-012	5.25785e-012	6.50653e-012	7.54429e-012	8.47857e-012	9.22135e-012	9.98794e-012	1.05849e-011	1.12027e-011	1.18023e-011	
FineR120	-1.03198e-010	-7.40316e-011	-5.67735e-011	-4.41676e-011	-3.47428e-011	-2.73428e-011	-2.14273e-011	-1.67448e-011	-1.24705e-011	-9.3306e-012	-6.46737e-012	-3.86036e-012	-1.7526e-012	2.14984e-013	1.87195e-012	3.38603e-012	4.75598e-012	5.81134e-012	6.86858e-012	7.9487e-012	8.86074e-012	9.45574e-012	1.03712e-011	1.11376e-011	1.17554e-011	1.21837e-011	
FineR130	-1.02882e-010	-7.36408e-011	-5.62504e-011	-4.37794e-011	-3.43553e-011	-2.71469e-011	-2.1207e-011	-1.6359e-011	-1.22764e-011	-8.96925e-012	-6.08239e-012	-3.66743e-012	-1.36804e-012	5.99391e-013	2.08675e-012	3.60044e-012	4.97006e-012	6.19524e-012	7.25148e-012	8.33243e-012	9.24438e-012	9.9879e-012	1.05838e-011	1.135e-011	1.21184e-011	1.27367e-011	
FineR140	-1.02488e-010	-7.32497e-011	-5.60578e-011	-4.33909e-011	-3.39941e-011	-2.67313e-011	-2.08456e-011	-1.59975e-011	-1.18906e-011	-8.58377e-012	-5.86471e-012	-3.30582e-012	-1.17524e-012	7.91915e-013	2.44845e-012	3.98481e-012	5.33183e-012	6.38689e-012	7.61329e-012	8.69428e-012	9.43559e-012	1.03707e-011	1.11152e-011	1.17119e-011	1.23295e-011	1.2929e-011	
FineR150	-1.02285e-010	-7.30497e-011	-5.58239e-011	-4.31882e-011	-3.37979e-011	-2.63956e-011	-2.0484e-011	-1.56359e-011	-1.17222e-011	-8.39025e-012	-5.50295e-012	-2.92031e-012	-8.13399e-013	1.00737e-012	2.83286e-012	4.34629e-012	5.56821e-012	6.74813e-012	7.82726e-012	8.73754e-012	9.81866e-012	1.05632e-011	1.13065e-011	1.20945e-011	1.26917e-011	1.33114e-011	
FineR160	-1.01914e-010	-7.28875e-011	-5.5464e-011	-4.30228e-011	-3.3605e-011	-2.61743e-011	-2.02639e-011	-1.54415e-011	-1.13349e-011	-8.00358e-012	-5.30964e-012	-2.72728e-012	-6.20609e-013	1.36923e-012	3.02524e-012	4.5385e-012	5.90776e-012	6.94003e-012	8.18853e-012	9.09873e-012	1.00102e-011	1.09022e-011	1.16894e-011	1.22859e-011	1.28829e-011	1.33313e-011	
FineR170	-1.01712e-010	-7.26874e-011	-5.52999e-011	-4.28255e-011	-3.34087e-011	-2.59786e-011	-2.00941e-011	-1.5247e-011	-1.11651e-011	-7.80986e-012	-5.11625e-012	-2.55787e-012	-4.27739e-013	1.56188e-012	3.2177e-012	4.73079e-012	6.0999e-012	7.32393e-012	8.38041e-012	9.29051e-012	1.02019e-011	1.11158e-011	1.18809e-011	1.26264e-011	1.30743e-011	1.36923e-011	
FineR180	-1.01509e-010	-7.24871e-011	-5.51013e-011	-4.24376e-011	-3.30435e-011	-2.57829e-011	-1.9899e-011	-1.50524e-011	-1.09466e-011	-7.61606e-012	-4.75465e-012	-2.36468e-012	-2.3479e-013	1.73177e-012	3.38774e-012	4.92315e-012	6.29212e-012	7.51603e-012	8.57238e-012	9.48236e-012	1.03937e-011	1.13075e-011	1.20725e-011	1.26687e-011	1.32657e-011	1.4055e-011	
FineR190	-1.01317e-010	-7.22868e-011	-5.48682e-011	-4.22677e-011	-3.30423e-011	-2.5613e-011	-1.97039e-011	-1.48577e-011	-1.09458e-011	-7.44625e-012	-4.58487e-012	-2.17124e-012	1.27054e-013	1.94744e-012	3.57993e-012	5.13777e-012	6.46179e-012	7.53788e-012	8.74204e-012	9.82251e-012	1.0734e-011	1.1498e-011	1.22422e-011	1.28384e-011	1.36269e-011	1.42449e-011	
FineR200	-1.01181e-010	-7.20879e-011	-5.46983e-011	-4.22345e-011	-3.26783e-011	-2.5278e-011	-1.93407e-011	-1.48554e-011	-1.07505e-011	-7.44555e-012	-4.36709e-012	-1.8329e-012	2.96831e-013	2.11677e-012	3.77216e-012	5.30751e-012	6.50658e-012	7.8777e-012	8.76363e-012	9.99221e-012	1.09258e-011	1.16677e-011	1.22629e-011	1.303e-011	1.38185e-011	1.42464e-011	
FineR210	-1.01146e-010	-7.19181e-011	-5.45354e-011	-4.19016e-011	-3.26503e-011	-2.52224e-011	-1.93397e-011	-1.4494e-011	-1.04134e-011	-7.05909e-012	-4.36642e-012	-1.78512e-012	3.20657e-013	2.30968e-012	3.96495e-012	5.47756e-012	6.84627e-012	8.04745e-012	9.12608e-012	1.00359e-011	1.0926e-011	1.18607e-011	1.26256e-011	1.32202e-011	1.38185e-011	1.44364e-011	
FineR220	-1.00944e-010	-7.19166e-011	-5.4331e-011	-4.19002e-011	-3.24803e-011	-2.50524e-011	-1.91697e-011	-1.44931e-011	-1.03871e-011	-7.08243e-012	-4.02838e-012	-1.76083e-012	5.13737e-013	2.47952e-012	4.13477e-012	5.66953e-012	7.01607e-012	8.07025e-012	9.29587e-012	1.03762e-011	1.11167e-011	1.20305e-011	1.26257e-011	1.33914e-011	1.40086e-011	1.46279e-011	
FineR230	-1.00775e-010	-7.15493e-011	-5.42951e-011	-4.16983e-011	-3.22849e-011	-2.48836e-011	-1.89754e-011	-1.42968e-011	-1.03862e-011	-6.88773e-012	-4.00349e-012	-1.42242e-012	6.83185e-013	2.67203e-012	4.15769e-012	5.66992e-012	7.03829e-012	8.26233e-012	9.48786e-012	1.03976e-011	1.13086e-011	1.20514e-011	1.2794e-011	1.3412e-011	1.42003e-011	1.47977e-011	
FineR240	-1.00573e-010	-7.15098e-011	-5.41321e-011	-4.15339e-011	-3.23103e-011	-2.48539e-011	-1.89471e-011	-1.41029e-011	-1.01926e-011	-6.7192e-012	-4.02663e-012	-1.42176e-012	7.06994e-013	2.67257e-012	4.32761e-012	5.8622e-012	7.23047e-012	8.45381e-012	9.50954e-012	1.03967e-011	1.12865e-011	1.22211e-011	1.29858e-011	1.35818e-011	1.42004e-011	1.47978e-011	
FineR250	-1.00605e-010	-7.13487e-011	-5.41306e-011	-4.15006e-011	-3.21149e-011	-2.48527e-011	-1.878e-011	-1.41268e-011	-1.00226e-011	-6.6936e-012	-3.66432e-012	-1.25248e-012	8.76313e-013	2.84194e-012	4.49697e-012	6.03209e-012	7.23003e-012	8.60172e-012	9.48736e-012	1.0737e-011	1.1648e-011	1.24117e-011	1.29859e-011	1.37735e-011	1.41989e-011	1.49675e-011	
MinCout:	1.27054e-013	FineR:	190	FineC:	120

	FineC120	FineC121	FineC122	FineC123	FineC124	FineC125	FineC126	FineC127	FineC128	FineC129	FineC130	FineC131	FineC132	FineC133	FineC134	FineC135	FineC136	FineC137	FineC138	FineC139	FineC140	
FineR100	-2.69026e-012	-2.54442e-012	-2.39853e-012	-2.27553e-012	-1.96042e-012	-1.81435e-012	-1.64534e-012	-1.52206e-012	-1.0376e-012	-1.0376e-012	-9.14105e-013	-7.67726e-013	-4.29317e-013	-2.82865e-013	-1.13636e-013	3.28977e-014	3.48628e-013	4.72631e-013	4.49958e-013	5.96703e-013	9.57862e-013	
FineR101	-2.69026e-012	-2.54442e-012	-2.39853e-012	-2.08349e-012	-1.96042e-012	-1.79144e-012	-1.47623e-012	-1.33007e-012	-1.20671e-012	-1.0376e-012	-7.2216e-013	-5.75794e-013	-4.29379e-013	-2.60118e-013	5.55003e-014	2.02039e-013	1.79332e-013	3.03264e-013	6.41753e-013	7.88533e-013	9.35314e-013	
FineR102	-2.69026e-012	-2.35234e-012	-2.20647e-012	-2.08349e-012	-1.76839e-012	-1.62233e-012	-1.47623e-012	-1.33007e-012	-1.01474e-012	-8.68474e-013	-7.2216e-013	-5.75794e-013	-2.60234e-013	-1.13762e-013	5.54929e-014	3.27604e-014	1.79333e-013	4.95124e-013	6.41803e-013	8.11187e-013	9.57947e-013	
FineR103	-2.52146e-012	-2.37559e-012	-2.22968e-012	-1.89144e-012	-1.74546e-012	-1.59942e-012	-1.28422e-012	-1.16108e-012	-9.91886e-013	-8.45642e-013	-5.53096e-013	-4.06711e-013	-2.37462e-013	-9.10096e-014	5.53882e-014	2.01916e-013	3.71207e-013	5.17816e-013	6.64476e-013	9.80364e-013	1.12713e-012	
FineR104	-2.66727e-012	-2.20649e-012	-2.0376e-012	-1.9146e-012	-1.76858e-012	-1.45339e-012	-1.30726e-012	-1.16108e-012	-8.45714e-013	-6.9943e-013	-5.30279e-013	-2.37552e-013	-2.37552e-013	-9.11108e-014	5.53809e-014	2.24649e-013	5.40368e-013	6.64346e-013	8.11046e-013	9.80364e-013	9.57796e-013	
FineR105	-2.49817e-012	-2.35236e-012	-2.0376e-012	-1.89146e-012	-1.57653e-012	-1.43047e-012	-1.28436e-012	-1.13813e-012	-8.22857e-013	-6.76593e-013	-5.30282e-013	-3.83942e-013	-2.37552e-013	-9.11108e-014	2.24551e-013	3.71099e-013	5.17697e-013	6.64346e-013	8.11046e-013	9.80237e-013	1.14954e-012	
FineR106	-2.49817e-012	-2.18326e-012	-2.06061e-012	-1.89146e-012	-1.74549e-012	-1.43034e-012	-1.28426e-012	-1.11523e-012	-8.2281e-013	-6.76571e-013	-5.30282e-013	-3.83942e-013	-2.14754e-013	1.00832e-013	2.47309e-013	3.93837e-013	5.40415e-013	6.86878e-013	8.33532e-013	9.80237e-013	1.14965e-012	
FineR107	-2.32933e-012	-2.18349e-012	-2.0376e-012	-1.72254e-012	-1.57654e-012	-1.4305e-012	-1.2844e-012	-9.46101e-013	-8.45786e-013	-6.53714e-013	-5.07445e-013	-1.91971e-013	-4.55951e-014	1.00832e-013	2.47309e-013	5.63012e-013	5.40274e-013	7.09596e-013	8.33608e-013	1.17211e-012	1.31885e-012	
FineR108	-2.30629e-012	-1.99135e-012	-1.86848e-012	-1.69956e-012	-1.57654e-012	-1.23842e-012	-1.11526e-012	-9.46203e-013	-8.22904e-013	-5.07488e-013	-3.61179e-013	-1.91971e-013	-4.55951e-014	2.69996e-013	3.93753e-013	4.16479e-013	5.63012e-013	8.78777e-013	1.02542e-012	1.17211e-012	1.31885e-012	
FineR109	-2.13717e-012	-1.99135e-012	-1.84548e-012	-1.53043e-012	-1.38445e-012	-1.23842e-012	-1.11526e-012	-7.77052e-013	-6.30864e-013	-5.07488e-013	-3.38336e-013	-2.28229e-014	1.46362e-013	2.7002e-013	2.47236e-013	5.62943e-013	7.09516e-013	8.5614e-013	1.00281e-012	1.17222e-012	1.3413e-012	
FineR110	-2.30625e-012	-1.99156e-012	-1.86868e-012	-1.53043e-012	-1.38445e-012	-1.23842e-012	-9.23189e-013	-7.77052e-013	-6.30864e-013	-4.84625e-013	-3.38325e-013	-1.92011e-013	-4.56458e-014	1.0077e-013	4.16421e-013	5.85707e-013	7.3226e-013	8.78864e-013	1.19472e-012	1.34143e-012	1.31875e-012	
FineR111	-2.30625e-012	-1.99131e-012	-1.67653e-012	-1.69954e-012	-1.38442e-012	-1.2384e-012	-1.09233e-012	-9.46214e-013	-4.61707e-013	-4.61707e-013	-3.15463e-013	-1.69168e-013	1.46351e-013	2.92752e-013	4.39204e-013	5.85707e-013	9.01455e-013	1.04806e-012	1.04806e-012	1.19472e-012	1.34143e-012	
FineR112	-2.11405e-012	-1.99131e-012	-1.84545e-012	-1.53039e-012	-1.38442e-012	-1.21531e-012	-1.09233e-012	-7.54043e-013	-4.61755e-013	-4.84643e-013	-1.463e-013	0	1.23537e-013	2.69972e-013	6.31172e-013	7.54974e-013	9.24199e-013	9.01455e-013	1.04806e-012	1.36393e-012	1.48811e-012	
FineR113	-2.13734e-012	-1.96826e-012	-1.65328e-012	-1.50738e-012	-1.36144e-012	-1.04628e-012	-9.00226e-013	-7.5412e-013	-6.30871e-013	-2.92578e-013	-1.46314e-013	-2.28482e-014	1.46365e-013	4.6198e-013	6.08452e-013	7.7766e-013	7.32205e-013	8.78798e-013	1.19466e-012	1.36407e-012	1.53333e-012	
FineR114	-1.94493e-012	-1.77608e-012	-1.65328e-012	-1.50738e-012	-1.19229e-012	-1.04628e-012	-9.00226e-013	-5.84954e-013	-4.38791e-013	-2.92578e-013	-1.46314e-013	1.69188e-013	3.15559e-013	4.6198e-013	4.39171e-013	5.85663e-013	9.24184e-013	1.07076e-012	1.21739e-012	1.38678e-012	1.5108e-012	
FineR115	-1.94512e-012	-1.79931e-012	-1.48429e-012	-1.33838e-012	-1.19241e-012	-1.04639e-012	-7.31137e-013	-5.85011e-013	-4.38835e-013	-2.92607e-013	2.28735e-014	1.69208e-013	3.38387e-013	3.15559e-013	6.31179e-013	7.77656e-013	9.01507e-013	1.07076e-012	1.40934e-012	1.53346e-012	1.51074e-012	
FineR116	-1.92205e-012	-1.79931e-012	-1.48429e-012	-1.33838e-012	-1.16941e-012	-8.5424e-013	-7.31137e-013	-5.62078e-013	-4.38835e-013	-1.2341e-013	4.57471e-014	1.69208e-013	1.69208e-013	4.61972e-013	6.31247e-013	7.77739e-013	9.24282e-013	1.09351e-012	1.38676e-012	1.53346e-012	1.51074e-012	
FineR117	-1.94503e-012	-1.63032e-012	-1.63016e-012	-1.48429e-012	-1.00024e-012	-8.77213e-013	-7.31137e-013	-7.31137e-013	-2.69643e-013	-1.2341e-013	-1.46304e-013	0	3.38416e-013	4.61972e-013	6.31247e-013	7.77739e-013	1.09351e-012	1.24011e-012	1.21736e-012	1.38676e-012	1.53346e-012	
FineR118	-1.94503e-012	-1.77598e-012	-1.63016e-012	-1.3383e-012	-1.16921e-012	-1.02324e-012	-8.77213e-013	-5.84967e-013	-4.15825e-013	-2.69643e-013	4.57868e-014	1.92076e-013	3.38416e-013	4.84806e-013	6.54061e-013	9.69757e-013	1.11629e-012	1.09351e-012	1.24011e-012	1.556e-012	1.7027e-012	
FineR119	-1.92193e-012	-1.79923e-012	-1.46115e-012	-1.31526e-012	-1.16933e-012	-8.77147e-013	-7.31083e-013	-5.84967e-013	-4.15825e-013	-1.00452e-013	4.57868e-014	1.92076e-013	3.61269e-013	6.76853e-013	8.2328e-013	9.69757e-013	9.46963e-013	1.26274e-012	1.40934e-012	1.556e-012	1.7027e-012	
FineR120	-1.75277e-012	-1.60699e-012	-1.46115e-012	-1.31526e-012	-1.00014e-012	-8.54149e-013	-7.08104e-013	-5.62009e-013	-2.46657e-013	-1.00455e-013	4.57978e-014	3.61324e-013	5.07683e-013	6.76853e-013	8.2328e-013	9.69757e-013	1.11619e-012	1.26274e-012	1.4321e-012	1.55617e-012	1.89467e-012	
MinCout:	0	FineR:	112	FineC:	131

