	CoarseC0	CoarseC10	CoarseC20	CoarseC30	CoarseC40	CoarseC50	CoarseC60	CoarseC70	CoarseC80	CoarseC90	CoarseC100	CoarseC110	CoarseC120	CoarseC130	CoarseC140	CoarseC150	CoarseC160	CoarseC170	CoarseC180	CoarseC190	CoarseC200	CoarseC210	CoarseC220	CoarseC230	CoarseC240	CoarseC250	
CoarseR0	-1.0748e-009	-1.0362e-009	-9.94419e-010	-9.57262e-010	-9.25672e-010	-8.98582e-010	-8.75343e-010	-8.54912e-010	-8.37313e-010	-8.21818e-010	-8.08039e-010	-7.96212e-010	-7.85446e-010	-7.76159e-010	-7.6757e-010	-7.60081e-010	-7.53673e-010	-7.4763e-010	-7.42464e-010	-7.37666e-010	-7.33635e-010	-7.30004e-010	-7.26814e-010	-7.24171e-010	-7.21664e-010	-7.19659e-010	
CoarseR10	-8.12661e-010	-7.70073e-010	-7.30394e-010	-6.95903e-010	-6.66784e-010	-6.41863e-010	-6.20021e-010	-6.00868e-010	-5.84368e-010	-5.69541e-010	-5.56744e-010	-5.45228e-010	-5.35061e-010	-5.2611e-010	-5.1842e-010	-5.11279e-010	-5.05147e-010	-4.99769e-010	-4.95186e-010	-4.91092e-010	-4.87709e-010	-4.84894e-010	-4.82527e-010	-4.80516e-010	-4.78731e-010	-4.77614e-010	
CoarseR20	-6.45995e-010	-6.00282e-010	-5.62389e-010	-5.30049e-010	-5.02651e-010	-4.78963e-010	-4.58645e-010	-4.40406e-010	-4.24678e-010	-4.10775e-010	-3.98418e-010	-3.87876e-010	-3.78413e-010	-3.70194e-010	-3.63081e-010	-3.56776e-010	-3.51204e-010	-3.46604e-010	-3.42507e-010	-3.38949e-010	-3.36316e-010	-3.33792e-010	-3.32064e-010	-3.30575e-010	-3.29552e-010	-3.28774e-010	
CoarseR30	-5.26845e-010	-4.80461e-010	-4.44569e-010	-4.13764e-010	-3.87721e-010	-3.65029e-010	-3.45443e-010	-3.28129e-010	-3.13221e-010	-3.00172e-010	-2.88708e-010	-2.78671e-010	-2.70014e-010	-2.62389e-010	-2.55747e-010	-2.50034e-010	-2.44981e-010	-2.40842e-010	-2.3743e-010	-2.34426e-010	-2.3217e-010	-2.30335e-010	-2.29085e-010	-2.28455e-010	-2.28023e-010	-2.27977e-010	
CoarseR40	-4.3717e-010	-3.91677e-010	-3.57296e-010	-3.2774e-010	-3.02614e-010	-2.80836e-010	-2.62174e-010	-2.45579e-010	-2.31496e-010	-2.18714e-010	-2.08092e-010	-1.98767e-010	-1.90459e-010	-1.83479e-010	-1.7738e-010	-1.72135e-010	-1.67794e-010	-1.64282e-010	-1.61358e-010	-1.59018e-010	-1.5739e-010	-1.56051e-010	-1.55437e-010	-1.5556e-010	-1.558e-010	-1.56649e-010	
CoarseR50	-3.67282e-010	-3.22926e-010	-2.89777e-010	-2.6104e-010	-2.36879e-010	-2.15893e-010	-1.97969e-010	-1.82189e-010	-1.68559e-010	-1.56598e-010	-1.46269e-010	-1.37431e-010	-1.29756e-010	-1.23264e-010	-1.17613e-010	-1.13144e-010	-1.09265e-010	-1.06087e-010	-1.03951e-010	-1.02235e-010	-1.01232e-010	-1.00836e-010	-1.01007e-010	-1.01887e-010	-1.03059e-010	-1.04999e-010	
CoarseR60	-3.10381e-010	-2.67417e-010	-2.35e-010	-2.07271e-010	-1.83775e-010	-1.63626e-010	-1.46258e-010	-1.30917e-010	-1.17897e-010	-1.06523e-010	-9.66204e-011	-8.83793e-011	-8.11501e-011	-7.51002e-011	-7.02307e-011	-6.59175e-011	-6.28038e-011	-6.0414e-011	-5.85745e-011	-5.78206e-011	-5.7599e-011	-5.79758e-011	-5.90942e-011	-6.09397e-011	-6.35501e-011	-6.6713e-011	
CoarseR70	-2.63531e-010	-2.2185e-010	-1.90087e-010	-1.63318e-010	-1.40412e-010	-1.2078e-010	-1.03834e-010	-8.9236e-011	-7.66097e-011	-6.57798e-011	-5.63234e-011	-4.84981e-011	-4.17037e-011	-3.60891e-011	-3.16647e-011	-2.81333e-011	-2.54775e-011	-2.37221e-011	-2.28636e-011	-2.27144e-011	-2.33055e-011	-2.48005e-011	-2.70479e-011	-3.01794e-011	-3.43479e-011	-3.94686e-011	
CoarseR80	-2.2428e-010	-1.83184e-010	-1.52321e-010	-1.26062e-010	-1.03868e-010	-8.47847e-011	-6.83479e-011	-5.4136e-011	-4.19018e-011	-3.13498e-011	-2.24225e-011	-1.50514e-011	-8.84161e-012	-3.84724e-012	2.9032e-013	3.02391e-012	5.05086e-012	6.19099e-012	6.39955e-012	5.56658e-012	3.99278e-012	1.19543e-012	-2.67093e-012	-7.65812e-012	-1.53509e-011	-2.32007e-011	
CoarseR90	-1.90456e-010	-1.50491e-010	-1.20286e-010	-9.45275e-011	-7.26985e-011	-5.41033e-011	-3.82135e-011	-2.42e-011	-1.25126e-011	-2.35794e-012	6.12346e-012	1.30858e-011	1.88587e-011	2.34018e-011	2.68998e-011	2.93357e-011	3.07074e-011	3.0842e-011	3.0246e-011	2.82425e-011	2.55381e-011	2.09538e-011	1.39502e-011	5.97221e-012	-1.95182e-012	-1.01386e-011	
CoarseR100	-1.61443e-010	-1.22218e-010	-9.24811e-011	-6.72717e-011	-4.59076e-011	-2.7654e-011	-1.19791e-011	1.49736e-012	1.30952e-011	2.26897e-011	3.09294e-011	3.74438e-011	4.27451e-011	4.68382e-011	4.96914e-011	5.14749e-011	5.20217e-011	5.16616e-011	4.9741e-011	4.65651e-011	4.15827e-011	3.36135e-011	2.53494e-011	1.69094e-011	8.61738e-012	1.15989e-012	
CoarseR110	-1.36026e-010	-9.73065e-011	-6.80653e-011	-4.32937e-011	-2.23966e-011	-4.39364e-012	1.09739e-011	2.42214e-011	3.54304e-011	4.47706e-011	5.25516e-011	5.88025e-011	6.36538e-011	6.74372e-011	6.9633e-011	7.05674e-011	7.02668e-011	6.87325e-011	6.56117e-011	6.00767e-011	5.16533e-011	4.33395e-011	3.46472e-011	2.64519e-011	1.85895e-011	1.13794e-011	
CoarseR120	-1.13523e-010	-7.52594e-011	-4.64749e-011	-2.1811e-011	-1.30266e-012	1.6574e-011	3.15109e-011	4.4384e-011	5.51923e-011	6.44406e-011	7.17768e-011	7.75724e-011	8.19312e-011	8.50461e-011	8.69226e-011	8.71831e-011	8.60292e-011	8.3121e-011	7.7644e-011	6.89315e-011	6.03427e-011	5.14078e-011	4.31305e-011	3.53932e-011	2.80102e-011	2.12863e-011	
CoarseR130	-9.30726e-011	-5.52282e-011	-2.67365e-011	-2.58002e-012	1.77921e-011	3.54925e-011	5.02294e-011	6.28801e-011	7.34167e-011	8.20506e-011	8.91005e-011	9.47519e-011	9.84438e-011	1.01261e-010	1.02095e-010	1.01645e-010	9.92875e-011	9.42933e-011	8.55936e-011	7.67568e-011	6.77082e-011	5.92296e-011	5.12712e-011	4.38435e-011	3.69377e-011	3.02076e-011	
CoarseR140	-7.47347e-011	-3.73931e-011	-9.35699e-012	1.46673e-011	3.50187e-011	5.21931e-011	6.65219e-011	7.90961e-011	8.95423e-011	9.80717e-011	1.04828e-010	1.09835e-010	1.13362e-010	1.15292e-010	1.15432e-010	1.13931e-010	1.10076e-010	1.01718e-010	9.27359e-011	8.32714e-011	7.47192e-011	6.65311e-011	5.90928e-011	5.20025e-011	4.53067e-011	3.89463e-011	
CoarseR150	-5.85023e-011	-2.15186e-011	6.53836e-012	3.0359e-011	5.03863e-011	6.75176e-011	8.1655e-011	9.41324e-011	1.04157e-010	1.12387e-010	1.18842e-010	1.23511e-010	1.26555e-010	1.27941e-010	1.27373e-010	1.24509e-010	1.17238e-010	1.08414e-010	9.88338e-011	8.98634e-011	8.16467e-011	7.40117e-011	6.6557e-011	5.96739e-011	5.31696e-011	4.70127e-011	
CoarseR160	-4.35527e-011	-6.85649e-012	2.08954e-011	4.45536e-011	6.45556e-011	8.14696e-011	9.55454e-011	1.07774e-010	1.17505e-010	1.25454e-010	1.31753e-010	1.36108e-010	1.38616e-010	1.39298e-010	1.37847e-010	1.32422e-010	1.23762e-010	1.14245e-010	1.05013e-010	9.63849e-011	8.8515e-011	8.08812e-011	7.36405e-011	6.71704e-011	6.08697e-011	5.51569e-011	
CoarseR170	-2.99729e-011	6.48301e-012	3.39256e-011	5.74175e-011	7.72215e-011	9.41158e-011	1.0831e-010	1.20261e-010	1.29912e-010	1.37708e-010	1.4351e-010	1.4753e-010	1.49492e-010	1.49509e-010	1.4665e-010	1.38589e-010	1.29369e-010	1.19876e-010	1.11177e-010	1.02723e-010	9.49274e-011	8.76848e-011	8.0867e-011	7.44153e-011	6.83721e-011	6.27475e-011	
CoarseR180	-1.7636e-011	1.87058e-011	4.60019e-011	6.95145e-011	8.93109e-011	1.06131e-010	1.20058e-010	1.31767e-010	1.41266e-010	1.48947e-010	1.54425e-010	1.58091e-010	1.59726e-010	1.58648e-010	1.53245e-010	1.44631e-010	1.34804e-010	1.25514e-010	1.17016e-010	1.08787e-010	1.01372e-010	9.43666e-011	8.75884e-011	8.14165e-011	7.56468e-011	7.00689e-011	
CoarseR190	-6.3228e-012	3.00594e-011	5.727e-011	8.07364e-011	1.00298e-010	1.17116e-010	1.3078e-010	1.42743e-010	1.52123e-010	1.5949e-010	1.64647e-010	1.67779e-010	1.687e-010	1.66724e-010	1.5917e-010	1.49444e-010	1.40054e-010	1.31297e-010	1.23024e-010	1.14858e-010	1.07682e-010	1.00736e-010	9.44161e-011	8.83018e-011	8.24182e-011	7.71255e-011	
CoarseR200	4.29186e-012	4.04178e-011	6.76238e-011	9.09046e-011	1.10642e-010	1.27147e-010	1.40959e-010	1.52651e-010	1.61874e-010	1.69105e-010	1.74077e-010	1.76897e-010	1.77086e-010	1.732e-010	1.6453e-010	1.54585e-010	1.45383e-010	1.36889e-010	1.2869e-010	1.20929e-010	1.13817e-010	1.07155e-010	1.00888e-010	9.50803e-011	8.92813e-011	8.40922e-011	
CoarseR210	1.39753e-011	4.994e-011	7.73267e-011	1.00509e-010	1.19977e-010	1.36466e-010	1.50347e-010	1.61899e-010	1.71054e-010	1.77916e-010	1.82773e-010	1.85033e-010	1.84707e-010	1.78562e-010	1.69369e-010	1.59652e-010	1.50657e-010	1.42212e-010	1.34262e-010	1.2695e-010	1.1992e-010	1.13312e-010	1.07199e-010	1.01465e-010	9.59896e-011	9.09008e-011	
CoarseR220	2.28237e-011	5.87149e-011	8.59394e-011	1.09216e-010	1.28733e-010	1.45313e-010	1.59046e-010	1.70551e-010	1.79721e-010	1.86457e-010	1.90791e-010	1.92703e-010	1.91533e-010	1.8384e-010	1.74069e-010	1.64564e-010	1.55827e-010	1.47651e-010	1.39962e-010	1.3251e-010	1.25804e-010	1.19294e-010	1.13241e-010	1.07648e-010	1.02255e-010	9.71119e-011	
CoarseR230	3.06694e-011	6.67631e-011	9.40683e-011	1.17192e-010	1.36976e-010	1.53484e-010	1.67359e-010	1.78729e-010	1.87782e-010	1.94186e-010	1.9856e-010	1.99936e-010	1.97308e-010	1.88673e-010	1.78868e-010	1.6981e-010	1.60953e-010	1.53013e-010	1.45412e-010	1.38269e-010	1.31648e-010	1.25448e-010	1.19523e-010	1.13838e-010	1.08601e-010	1.03759e-010	
CoarseR240	3.84099e-011	7.4317e-011	1.01562e-010	1.24845e-010	1.44413e-010	1.61051e-010	1.74798e-010	1.86239e-010	1.9516e-010	2.01606e-010	2.05644e-010	2.06721e-010	2.02258e-010	1.93294e-010	1.83725e-010	1.74712e-010	1.66139e-010	1.58313e-010	1.50788e-010	1.43762e-010	1.37407e-010	1.31127e-010	1.25146e-010	1.1995e-010	1.14632e-010	1.09765e-010	
CoarseR250	4.52006e-011	8.1035e-011	1.08543e-010	1.31815e-010	1.51721e-010	1.68063e-010	1.8195e-010	1.93296e-010	2.02277e-010	2.08764e-010	2.12273e-010	2.13003e-010	2.0716e-010	1.97961e-010	1.8845e-010	1.79567e-010	1.71274e-010	1.63486e-010	1.56285e-010	1.49347e-010	1.42932e-010	1.36944e-010	1.31297e-010	1.25828e-010	1.2066e-010	1.15912e-010	
MinCout:	2.9032e-013	CoarseR:	80	CoarseC:	140

	CoarseC40	CoarseC41	CoarseC42	CoarseC43	CoarseC44	CoarseC45	CoarseC46	CoarseC47	CoarseC48	CoarseC49	CoarseC50	CoarseC51	CoarseC52	CoarseC53	CoarseC54	CoarseC55	CoarseC56	CoarseC57	CoarseC58	CoarseC59	CoarseC60	
CoarseR100	-4.60485e-011	-4.40843e-011	-4.19823e-011	-4.01547e-011	-3.81844e-011	-3.63537e-011	-3.45485e-011	-3.2928e-011	-3.1114e-011	-2.92808e-011	-2.7632e-011	-2.58375e-011	-2.42062e-011	-2.27418e-011	-2.10821e-011	-1.94261e-011	-1.77865e-011	-1.64337e-011	-1.48133e-011	-1.3478e-011	-1.19567e-011	
CoarseR101	-4.34388e-011	-4.1311e-011	-3.9317e-011	-3.76824e-011	-3.57126e-011	-3.37449e-011	-3.21003e-011	-3.04577e-011	-2.84835e-011	-2.68369e-011	-2.51884e-011	-2.35598e-011	-2.18827e-011	-2.02528e-011	-1.8618e-011	-1.69596e-011	-1.55107e-011	-1.39916e-011	-1.25156e-011	-1.10364e-011	-9.51521e-012	
CoarseR102	-4.11399e-011	-3.91526e-011	-3.70231e-011	-3.52239e-011	-3.34424e-011	-3.14475e-011	-2.96423e-011	-2.8e-011	-2.61905e-011	-2.45193e-011	-2.27281e-011	-2.10779e-011	-1.94478e-011	-1.79381e-011	-1.61615e-011	-1.46679e-011	-1.3196e-011	-1.17011e-011	-1.00601e-011	-8.7263e-012	-7.39222e-012	
CoarseR103	-3.86431e-011	-3.65146e-011	-3.45495e-011	-3.29157e-011	-3.07819e-011	-2.91173e-011	-2.73123e-011	-2.55284e-011	-2.36936e-011	-2.20479e-011	-2.04003e-011	-1.8607e-011	-1.69552e-011	-1.54457e-011	-1.38359e-011	-1.21781e-011	-1.0517e-011	-9.18904e-012	-7.73562e-012	-6.07146e-012	-4.92644e-012	
CoarseR104	-3.6152e-011	-3.39997e-011	-3.20626e-011	-3.0402e-011	-2.84333e-011	-2.6489e-011	-2.48263e-011	-2.30169e-011	-2.12079e-011	-1.95625e-011	-1.79151e-011	-1.62882e-011	-1.46367e-011	-1.31497e-011	-1.15165e-011	-9.83749e-012	-8.22312e-012	-6.87273e-012	-5.25268e-012	-3.7559e-012	-2.40082e-012	
CoarseR105	-3.36754e-011	-3.16851e-011	-2.97481e-011	-2.80879e-011	-2.61195e-011	-2.41518e-011	-2.25126e-011	-2.068e-011	-1.88948e-011	-1.73924e-011	-1.54139e-011	-1.37875e-011	-1.21365e-011	-1.08156e-011	-9.01728e-012	-7.52612e-012	-5.88918e-012	-4.56355e-012	-3.08823e-012	-1.42406e-012	-2.58647e-013	
CoarseR106	-3.13231e-011	-2.93609e-011	-2.73948e-011	-2.55469e-011	-2.36294e-011	-2.16353e-011	-1.99967e-011	-1.83793e-011	-1.65452e-011	-1.49254e-011	-1.32541e-011	-1.16283e-011	-9.97769e-012	-8.46916e-012	-6.67054e-012	-5.18096e-012	-3.56733e-012	-2.05216e-012	-5.99672e-013	8.9718e-013	2.06174e-012	
CoarseR107	-2.91432e-011	-2.7018e-011	-2.50543e-011	-2.33713e-011	-2.12895e-011	-1.94605e-011	-1.78224e-011	-1.60139e-011	-1.42062e-011	-1.27278e-011	-1.09157e-011	-9.29037e-012	-7.63998e-012	-6.13161e-012	-4.5001e-012	-2.86676e-012	-1.37563e-012	1.39125e-013	1.59072e-012	3.08701e-012	4.44024e-012	
CoarseR108	-2.67899e-011	-2.48287e-011	-2.28655e-011	-2.10427e-011	-1.90754e-011	-1.72987e-011	-1.54684e-011	-1.38287e-011	-1.20202e-011	-1.03764e-011	-8.70646e-012	-7.08207e-012	-5.45537e-012	-3.97077e-012	-2.15018e-012	-6.83895e-013	9.73876e-013	2.29967e-012	3.79335e-012	5.43512e-012	6.59853e-012	
CoarseR109	-2.4421e-011	-2.24604e-011	-2.04976e-011	-1.88422e-011	-1.67325e-011	-1.50973e-011	-1.346e-011	-1.14868e-011	-9.84537e-012	-8.20193e-012	-6.38938e-012	-4.71821e-012	-3.09242e-012	-1.6077e-012	2.27885e-014	1.67819e-012	3.16821e-012	4.49336e-012	6.10998e-012	7.43921e-012	8.95829e-012	
CoarseR110	-2.22324e-011	-2.02721e-011	-1.83363e-011	-1.66545e-011	-1.45463e-011	-1.29101e-011	-1.10805e-011	-9.46674e-012	-7.65757e-012	-5.99096e-012	-4.34617e-012	-2.72274e-012	-1.07374e-012	4.33547e-013	2.04029e-012	3.69525e-012	5.18476e-012	6.67662e-012	8.12614e-012	9.62119e-012	1.09727e-011	
CoarseR111	-2.02218e-011	-1.82619e-011	-1.62749e-011	-1.4477e-011	-1.25109e-011	-1.07113e-011	-8.88195e-012	-7.24366e-012	-5.45958e-012	-3.81701e-012	-2.17239e-012	-5.49272e-013	1.09958e-012	2.60678e-012	4.2362e-012	5.72358e-012	7.35724e-012	8.68163e-012	1.03197e-011	1.18367e-011	1.29984e-011	
CoarseR112	-1.78419e-011	-1.58824e-011	-1.39219e-011	-1.2241e-011	-1.03258e-011	-8.49823e-012	-6.83781e-012	-5.0562e-012	-3.39179e-012	-1.58191e-012	6.1999e-014	1.68424e-012	3.33241e-012	4.83905e-012	6.46764e-012	7.93219e-012	9.56536e-012	1.08893e-011	1.25481e-011	1.40437e-011	1.52049e-011	
CoarseR113	-1.56181e-011	-1.3659e-011	-1.18625e-011	-1.01824e-011	-8.24298e-012	-6.27556e-012	-4.64019e-012	-2.83434e-012	-1.19478e-012	4.46872e-013	2.25892e-012	3.904e-012	5.36193e-012	6.86829e-012	8.49636e-012	1.01501e-011	1.17826e-011	1.29382e-011	1.4575e-011	1.60705e-011	1.73997e-011	
CoarseR114	-1.35727e-011	-1.1614e-011	-9.65313e-012	-7.99905e-012	-6.03394e-012	-4.20723e-012	-2.40378e-012	-7.91596e-013	8.47527e-013	2.70546e-012	4.32408e-012	5.9451e-012	7.59238e-012	9.07588e-012	1.07258e-011	1.21896e-011	1.3845e-011	1.51897e-011	1.66361e-011	1.81084e-011	1.94576e-011	
CoarseR115	-1.15198e-011	-9.53569e-012	-7.74033e-012	-5.94331e-012	-3.9788e-012	-2.1809e-012	-3.77227e-013	1.28378e-012	3.09132e-012	4.56558e-012	6.20815e-012	7.9975e-012	9.667e-012	1.115e-011	1.27769e-011	1.42622e-011	1.58719e-011	1.72157e-011	1.88514e-011	2.03465e-011	2.15062e-011	
CoarseR116	-9.42539e-012	-7.46814e-012	-5.50824e-012	-3.68556e-012	-1.74692e-012	-9.01355e-014	1.71302e-012	3.34899e-012	5.18015e-012	6.79659e-012	8.46206e-012	1.0251e-011	1.17077e-011	1.3189e-011	1.48394e-011	1.63227e-011	1.79548e-011	1.92767e-011	2.09118e-011	2.22355e-011	2.35631e-011	
CoarseR117	-7.20769e-012	-5.25031e-012	-3.42982e-012	-1.80291e-012	1.60794e-013	1.96177e-012	3.61961e-012	5.42453e-012	7.062e-012	8.70161e-012	1.05129e-011	1.21322e-011	1.36355e-011	1.51159e-011	1.67657e-011	1.8372e-011	1.98583e-011	2.137e-011	2.29837e-011	2.43061e-011	2.54847e-011	
CoarseR118	-5.28701e-012	-3.33029e-012	-1.34514e-012	4.51273e-013	2.27477e-012	4.21533e-012	5.70655e-012	7.67731e-012	9.28914e-012	1.07869e-011	1.24031e-011	1.42163e-011	1.58618e-011	1.73663e-011	1.89914e-011	2.04751e-011	2.19394e-011	2.32809e-011	2.49146e-011	2.63853e-011	2.75431e-011	
CoarseR119	-3.2176e-012	-1.26115e-012	5.58636e-013	2.35478e-012	4.3176e-012	6.11816e-012	7.77634e-012	9.40912e-012	1.12158e-011	1.26878e-011	1.44986e-011	1.61164e-011	1.77836e-011	1.92657e-011	2.08901e-011	2.23733e-011	2.40054e-011	2.51782e-011	2.68113e-011	2.82816e-011	2.94588e-011	
CoarseR120	-1.27653e-012	8.49641e-013	2.44616e-012	4.29361e-012	6.23091e-012	8.05554e-012	9.68719e-012	1.14915e-011	1.31275e-011	1.49362e-011	1.6574e-011	1.80491e-011	1.96713e-011	2.11751e-011	2.2799e-011	2.42817e-011	2.59343e-011	2.72558e-011	2.88884e-011	3.02081e-011	3.13645e-011	
MinCout:	2.27885e-014	CoarseR:	109	CoarseC:	54

	FineC0	FineC10	FineC20	FineC30	FineC40	FineC50	FineC60	FineC70	FineC80	FineC90	FineC100	FineC110	FineC120	FineC130	FineC140	FineC150	FineC160	FineC170	FineC180	FineC190	FineC200	FineC210	FineC220	FineC230	FineC240	FineC250	
FineR0	-1.33709e-010	-1.08273e-010	-9.22976e-011	-8.07522e-011	-7.16363e-011	-6.45914e-011	-5.89217e-011	-5.41123e-011	-5.02268e-011	-4.67806e-011	-4.39376e-011	-4.13727e-011	-3.93022e-011	-3.71857e-011	-3.55399e-011	-3.40375e-011	-3.2695e-011	-3.13342e-011	-3.02634e-011	-2.92139e-011	-2.83075e-011	-2.74223e-011	-2.68258e-011	-2.60652e-011	-2.53074e-011	-2.48583e-011	
FineR10	-1.17052e-010	-9.19119e-011	-7.61409e-011	-6.44348e-011	-5.55911e-011	-4.85551e-011	-4.28623e-011	-3.80855e-011	-3.42046e-011	-3.07357e-011	-2.80873e-011	-2.55261e-011	-2.34133e-011	-2.14854e-011	-1.98191e-011	-1.81747e-011	-1.68381e-011	-1.56231e-011	-1.45737e-011	-1.35253e-011	-1.24743e-011	-1.18815e-011	-1.09544e-011	-1.0216e-011	-9.62401e-012	-9.00832e-012	
FineR20	-1.09641e-010	-8.4512e-011	-6.88858e-011	-5.73231e-011	-4.82176e-011	-4.1161e-011	-3.56373e-011	-3.10033e-011	-2.71506e-011	-2.35231e-011	-2.06875e-011	-1.84616e-011	-1.62072e-011	-1.42602e-011	-1.26194e-011	-1.11417e-011	-9.61861e-012	-8.59371e-012	-7.38023e-012	-6.3101e-012	-5.42807e-012	-4.50268e-012	-3.93179e-012	-3.17288e-012	-2.39294e-012	-1.98808e-012	
FineR30	-1.05526e-010	-8.03798e-011	-6.45966e-011	-5.30402e-011	-4.40708e-011	-3.70485e-011	-3.15525e-011	-2.67557e-011	-2.28594e-011	-1.96102e-011	-1.67523e-011	-1.41748e-011	-1.21124e-011	-9.99846e-012	-8.35896e-012	-6.86124e-012	-5.50651e-012	-4.31544e-012	-3.12428e-012	-2.38856e-012	-1.32007e-012	-4.16071e-013	1.74961e-013	9.12306e-013	1.69201e-012	2.11646e-012	
FineR40	-1.02764e-010	-7.75759e-011	-6.19641e-011	-5.04077e-011	-4.14429e-011	-3.43955e-011	-2.87403e-011	-2.40867e-011	-2.02425e-011	-1.69474e-011	-1.39504e-011	-1.15627e-011	-9.31317e-012	-7.36687e-012	-5.56216e-012	-4.06533e-012	-2.8993e-012	-1.71049e-012	-4.75391e-013	4.04053e-013	1.28488e-012	2.20938e-012	2.94537e-012	3.72406e-012	4.31622e-012	4.90665e-012	
FineR50	-1.00859e-010	-7.57161e-011	-5.99069e-011	-4.83542e-011	-3.97201e-011	-3.26759e-011	-2.68331e-011	-2.20678e-011	-1.81985e-011	-1.49046e-011	-1.22406e-011	-9.71167e-012	-7.46133e-012	-5.49398e-012	-3.85645e-012	-2.36036e-012	-1.00692e-012	3.49064e-013	1.3943e-012	2.2518e-012	3.15355e-012	4.07777e-012	4.83438e-012	5.57118e-012	6.16273e-012	6.75339e-012	
FineR60	-9.95189e-011	-7.43826e-011	-5.87369e-011	-4.71934e-011	-3.82339e-011	-3.11907e-011	-2.55124e-011	-2.07461e-011	-1.68785e-011	-1.35626e-011	-1.07572e-011	-8.20514e-012	-6.12328e-012	-4.15687e-012	-2.37608e-012	-1.0469e-012	3.06055e-013	1.66155e-012	2.70628e-012	3.94116e-012	4.82139e-012	5.5555e-012	6.14492e-012	6.88147e-012	7.6607e-012	8.25256e-012	
FineR70	-9.82398e-011	-7.32337e-011	-5.7592e-011	-4.60782e-011	-3.70942e-011	-3.0078e-011	-2.44006e-011	-1.9611e-011	-1.59094e-011	-1.22863e-011	-9.62428e-012	-7.07315e-012	-4.9921e-012	-2.88229e-012	-1.24551e-012	2.49637e-013	1.58036e-012	2.62275e-012	3.83387e-012	4.85873e-012	5.78138e-012	6.68369e-012	7.43985e-012	8.02979e-012	8.59819e-012	9.37796e-012	
FineR80	-9.74257e-011	-7.24659e-011	-5.68549e-011	-4.51492e-011	-3.61666e-011	-2.91235e-011	-2.36416e-011	-1.88529e-011	-1.47953e-011	-1.15297e-011	-8.86836e-012	-6.31772e-012	-4.07041e-012	-2.12734e-012	-4.91318e-013	1.00352e-012	2.33391e-012	3.54298e-012	4.58696e-012	5.63277e-012	6.5335e-012	7.28842e-012	8.19223e-012	8.94907e-012	9.39188e-012	1.01299e-011	
FineR90	-9.66849e-011	-7.1727e-011	-5.60893e-011	-4.44123e-011	-3.54007e-011	-2.85537e-011	-2.27128e-011	-1.80917e-011	-1.42511e-011	-1.09373e-011	-7.94428e-012	-5.56078e-012	-3.48011e-012	-1.56072e-012	2.41798e-013	1.75845e-012	2.92127e-012	4.29781e-012	5.34146e-012	6.3658e-012	7.11965e-012	8.02133e-012	8.75638e-012	9.51305e-012	1.01033e-011	1.07138e-011	
FineR100	-9.63069e-011	-7.11461e-011	-5.53732e-011	-4.38362e-011	-3.48263e-011	-2.8006e-011	-2.21409e-011	-1.75187e-011	-1.36808e-011	-1.03912e-011	-7.37515e-012	-4.99218e-012	-2.76797e-012	-9.93007e-013	8.09209e-013	2.30344e-012	3.48834e-012	4.8428e-012	5.90778e-012	6.93067e-012	7.66387e-012	8.5871e-012	9.32201e-012	1.00785e-011	1.08573e-011	1.12588e-011	
FineR110	-9.59092e-011	-7.05871e-011	-5.49551e-011	-4.34214e-011	-3.44698e-011	-2.75959e-011	-2.17596e-011	-1.69735e-011	-1.32752e-011	-9.81998e-012	-6.99484e-012	-4.44561e-012	-2.36615e-012	-4.24625e-013	1.21012e-012	2.70387e-012	4.03315e-012	5.24235e-012	6.43076e-012	7.32952e-012	8.39804e-012	9.11009e-012	9.86566e-012	1.04763e-011	1.12131e-011	1.18234e-011	
FineR120	-9.53237e-011	-7.02386e-011	-5.44105e-011	-4.28722e-011	-3.40834e-011	-2.70225e-011	-2.13758e-011	-1.65907e-011	-1.27282e-011	-9.43994e-012	-6.61423e-012	-4.06596e-012	-1.81983e-012	9.88102e-014	1.75617e-012	3.24982e-012	4.60127e-012	5.62018e-012	6.83033e-012	7.85406e-012	8.75423e-012	9.50873e-012	1.04328e-011	1.11891e-011	1.1611e-011	1.23689e-011	
FineR130	-9.49682e-011	-6.9853e-011	-5.40545e-011	-4.265e-011	-3.37009e-011	-2.6666e-011	-2.09944e-011	-1.62097e-011	-1.25126e-011	-9.05839e-012	-6.23417e-012	-3.6857e-012	-1.62984e-012	3.11252e-013	1.9682e-012	3.46147e-012	4.98036e-012	6.16628e-012	7.18787e-012	8.06447e-012	9.13292e-012	9.88736e-012	1.06209e-011	1.13987e-011	1.21556e-011	1.25781e-011	
FineR140	-9.46124e-011	-6.95883e-011	-5.38579e-011	-4.22936e-011	-3.33444e-011	-2.64725e-011	-2.06377e-011	-1.60175e-011	-1.21559e-011	-8.70158e-012	-5.87733e-012	-3.32882e-012	-1.24984e-012	6.90909e-013	2.32514e-012	3.8405e-012	5.14726e-012	6.52331e-012	7.56623e-012	8.44262e-012	9.36426e-012	1.04118e-011	1.09997e-011	1.17558e-011	1.23467e-011	1.29353e-011	
FineR150	-9.44225e-011	-6.9262e-011	-5.3634e-011	-4.19057e-011	-3.29582e-011	-2.60876e-011	-2.02539e-011	-1.56345e-011	-1.17736e-011	-8.51141e-012	-5.49627e-012	-3.13814e-012	-8.69748e-013	1.07072e-012	2.70463e-012	4.19765e-012	5.54856e-012	6.73483e-012	7.94474e-012	8.82093e-012	9.69959e-012	1.06225e-011	1.13559e-011	1.21336e-011	1.27027e-011	1.33128e-011	
FineR160	-9.4057e-011	-6.90349e-011	-5.34383e-011	-4.17424e-011	-3.27382e-011	-2.58946e-011	-2.00885e-011	-1.54687e-011	-1.15821e-011	-8.15344e-012	-5.3295e-012	-2.92406e-012	-6.79455e-013	1.23809e-012	2.87214e-012	4.3653e-012	5.73812e-012	7.09146e-012	8.11275e-012	9.01008e-012	1.00779e-011	1.09788e-011	1.15665e-011	1.23224e-011	1.28898e-011	1.35014e-011	
FineR170	-9.38574e-011	-6.87096e-011	-5.32426e-011	-4.15478e-011	-3.25707e-011	-2.57297e-011	-1.9869e-011	-1.52506e-011	-1.13906e-011	-7.93763e-012	-5.13863e-012	-2.75701e-012	-5.12157e-013	1.45092e-012	3.25156e-012	4.74429e-012	6.09495e-012	7.28095e-012	8.30211e-012	9.34553e-012	1.02451e-011	1.11678e-011	1.17554e-011	1.24908e-011	1.30785e-011	1.36902e-011	
FineR180	-9.38237e-011	-6.85123e-011	-5.28871e-011	-4.1353e-011	-3.23769e-011	-2.55084e-011	-1.97015e-011	-1.50831e-011	-1.12232e-011	-7.74636e-012	-4.92364e-012	-2.39993e-012	-3.21734e-013	1.64114e-012	3.25174e-012	4.91159e-012	6.26225e-012	7.44822e-012	8.49064e-012	9.53485e-012	1.04552e-011	1.1357e-011	1.19227e-011	1.2658e-011	1.32877e-011	1.3879e-011	
FineR190	-9.36146e-011	-6.83149e-011	-5.26911e-011	-4.13204e-011	-3.23494e-011	-2.51777e-011	-1.95089e-011	-1.47265e-011	-1.08664e-011	-7.74577e-012	-4.73261e-012	-2.20899e-012	-1.31233e-013	1.80874e-012	3.44182e-012	5.10151e-012	6.2848e-012	7.63784e-012	8.68013e-012	9.578e-012	1.06236e-011	1.13776e-011	1.21117e-011	1.28675e-011	1.36457e-011	1.40462e-011	
FineR200	-9.33012e-011	-6.82767e-011	-5.25235e-011	-4.09646e-011	-3.20196e-011	-2.49845e-011	-1.94829e-011	-1.47011e-011	-1.06746e-011	-7.38882e-012	-4.5411e-012	-2.1852e-012	3.61985e-014	2.1659e-012	3.79929e-012	5.1243e-012	6.61997e-012	7.82754e-012	8.8697e-012	9.9137e-012	1.07921e-011	1.15668e-011	1.23009e-011	1.32255e-011	1.36455e-011	1.42351e-011	
FineR210	-9.32581e-011	-6.79513e-011	-5.24885e-011	-4.07969e-011	-3.19889e-011	-2.49834e-011	-1.91244e-011	-1.45335e-011	-1.06486e-011	-7.22126e-012	-4.37454e-012	-1.99417e-012	2.26422e-013	2.16624e-012	3.98906e-012	5.48133e-012	6.80912e-012	7.82681e-012	8.86882e-012	1.01021e-011	1.09804e-011	1.18809e-011	1.24902e-011	1.3224e-011	1.38129e-011	1.44243e-011	
FineR220	-9.32891e-011	-6.79131e-011	-5.23559e-011	-4.07915e-011	-3.18213e-011	-2.48168e-011	-1.91485e-011	-1.45312e-011	-1.0481e-011	-7.196e-012	-4.37396e-012	-1.82729e-012	4.16993e-013	2.35641e-012	3.98937e-012	5.48158e-012	6.80931e-012	8.18461e-012	9.20441e-012	1.01022e-011	1.10012e-011	1.19016e-011	1.26357e-011	1.34132e-011	1.39818e-011	1.45917e-011	
FineR230	-9.28922e-011	-6.79115e-011	-5.21262e-011	-4.06019e-011	-3.16283e-011	-2.45953e-011	-1.90954e-011	-1.4173e-011	-1.03142e-011	-7.02974e-012	-4.18236e-012	-1.65973e-012	4.40631e-013	2.52385e-012	4.01204e-012	5.50389e-012	6.83127e-012	8.18389e-012	9.22579e-012	1.02917e-011	1.11686e-011	1.19016e-011	1.26562e-011	1.34117e-011	1.4002e-011	1.459e-011	
FineR240	-9.28814e-011	-6.7586e-011	-5.21196e-011	-4.05965e-011	-3.16535e-011	-2.45917e-011	-1.8789e-011	-1.4146e-011	-1.02881e-011	-7.00379e-012	-4.01539e-012	-1.6591e-012	6.07715e-013	2.52393e-012	4.34638e-012	5.83831e-012	7.02105e-012	8.35208e-012	9.41539e-012	1.0437e-011	1.1336e-011	1.2091e-011	1.2825e-011	1.35806e-011	1.41897e-011	1.47792e-011	
FineR250	-9.27247e-011	-6.77439e-011	-5.19584e-011	-4.04028e-011	-3.14562e-011	-2.44275e-011	-1.8761e-011	-1.39806e-011	-1.02873e-011	-6.83615e-012	-4.01475e-012	-1.46863e-012	5.84985e-013	2.54702e-012	4.34674e-012	5.83862e-012	6.99875e-012	8.37377e-012	9.41554e-012	1.04581e-011	1.1357e-011	1.22791e-011	1.28456e-011	1.3601e-011	1.43572e-011	1.49466e-011	
MinCout:	3.61985e-014	FineR:	200	FineC:	120

	FineC120	FineC121	FineC122	FineC123	FineC124	FineC125	FineC126	FineC127	FineC128	FineC129	FineC130	FineC131	FineC132	FineC133	FineC134	FineC135	FineC136	FineC137	FineC138	FineC139	FineC140	
FineR120	-1.81983e-012	-1.67601e-012	-1.53215e-012	-1.22128e-012	-1.10015e-012	-9.33286e-013	-7.89215e-013	-4.78125e-013	-3.56713e-013	-1.89725e-013	1.21535e-013	2.43159e-013	4.10243e-013	5.54671e-013	8.88714e-013	8.43508e-013	9.88059e-013	1.13266e-012	1.44433e-012	1.63401e-012	1.75634e-012	
FineR121	-1.82002e-012	-1.84294e-012	-1.36534e-012	-1.24427e-012	-1.07731e-012	-9.56214e-013	-6.22251e-013	-4.78125e-013	-3.56713e-013	-1.89725e-013	1.21535e-013	2.65864e-013	4.10243e-013	5.54553e-013	6.99006e-013	8.43508e-013	1.01069e-012	1.29968e-012	1.46692e-012	1.61161e-012	1.75634e-012	
FineR122	-1.98675e-012	-1.67599e-012	-1.50908e-012	-1.3652e-012	-1.07719e-012	-9.33196e-013	-6.22251e-013	-6.45054e-013	-1.89763e-013	-2.27445e-014	1.21535e-013	9.88102e-014	4.1015e-013	5.54553e-013	6.99006e-013	1.0557e-012	1.1777e-012	1.32229e-012	1.46692e-012	1.61161e-012	1.75607e-012	
FineR123	-1.8198e-012	-1.67599e-012	-1.53214e-012	-1.22127e-012	-1.07731e-012	-9.10355e-013	-7.89236e-013	-4.78142e-013	-1.66994e-013	-1.66975e-013	1.44236e-013	2.88521e-013	4.32855e-013	5.77239e-013	8.66091e-013	1.03316e-012	1.1777e-012	1.32229e-012	1.29968e-012	1.77864e-012	1.77864e-012	
FineR124	-1.8198e-012	-1.67599e-012	-1.36518e-012	-1.22127e-012	-1.07731e-012	-7.66323e-013	-6.22258e-013	-4.78142e-013	-3.33978e-013	1.4425e-013	1.215e-013	2.65818e-013	4.32855e-013	7.44236e-013	9.11341e-013	1.01061e-012	1.20033e-012	1.48946e-012	1.63411e-012	1.61152e-012	1.77864e-012	
FineR125	-1.79686e-012	-1.48612e-012	-1.34228e-012	-1.19838e-012	-8.87474e-013	-7.66323e-013	-6.22258e-013	-4.78142e-013	-1.44186e-013	-2.27692e-014	1.215e-013	2.65818e-013	5.99908e-013	7.44311e-013	8.88764e-013	1.05581e-012	1.34485e-012	1.32222e-012	1.46684e-012	1.63395e-012	1.94586e-012	
FineR126	-1.62991e-012	-1.48612e-012	-1.34228e-012	-1.03142e-012	-8.87474e-013	-7.43477e-013	-4.32452e-013	-2.88351e-013	-1.66989e-013	0	3.11249e-013	4.55554e-013	5.99908e-013	7.44311e-013	1.05578e-012	1.20029e-012	1.34485e-012	1.34471e-012	1.63388e-012	1.82356e-012	1.94586e-012	
FineR127	-1.60697e-012	-1.46319e-012	-1.19835e-012	-1.03142e-012	-8.87474e-013	-5.76504e-013	-4.32452e-013	-2.88351e-013	-1.442e-013	1.66994e-013	3.33999e-013	4.55554e-013	7.66918e-013	9.11327e-013	9.11327e-013	1.22295e-012	1.20029e-012	1.51188e-012	1.65649e-012	1.80115e-012	1.94586e-012	
FineR128	-1.63008e-012	-1.3193e-012	-1.17544e-012	-1.03152e-012	-7.20576e-013	-5.7656e-013	-4.32494e-013	-2.88379e-013	2.27885e-014	1.67013e-013	3.33999e-013	4.55601e-013	6.22559e-013	7.66918e-013	9.11327e-013	1.22281e-012	1.3448e-012	1.51188e-012	1.65649e-012	1.99079e-012	2.13549e-012	
FineR129	-1.60687e-012	-1.48606e-012	-1.34223e-012	-1.03137e-012	-8.87434e-013	-5.7656e-013	-4.32494e-013	-2.88329e-013	2.27939e-014	1.67013e-013	4.78301e-013	4.55546e-013	5.99889e-013	7.66918e-013	1.07834e-012	1.20026e-012	1.36732e-012	1.51204e-012	1.84614e-012	1.9684e-012	1.9682e-012	
FineR130	-1.60687e-012	-1.46311e-012	-1.15233e-012	-1.00846e-012	-8.64543e-013	-7.20576e-013	-4.09568e-013	-2.65497e-013	2.27939e-014	3.34027e-013	3.11252e-013	4.55546e-013	5.99889e-013	9.34028e-013	1.05576e-012	1.22293e-012	1.38997e-012	1.67909e-012	1.84614e-012	1.9684e-012	1.9458e-012	
FineR131	-1.43992e-012	-1.29615e-012	-1.15233e-012	-1.00846e-012	-6.97562e-013	-5.5359e-013	-4.09568e-013	-2.65497e-013	2.28133e-014	3.56802e-013	3.34027e-013	4.55546e-013	7.89649e-013	9.34028e-013	1.07846e-012	1.22293e-012	1.53451e-012	1.67909e-012	1.67909e-012	1.8011e-012	2.11286e-012	
FineR132	-1.43992e-012	-1.29615e-012	-1.17537e-012	-8.64478e-013	-6.97562e-013	-5.5359e-013	-4.09568e-013	-9.84995e-014	2.28187e-014	1.89802e-013	5.0104e-013	6.4532e-013	7.89649e-013	9.34028e-013	1.24549e-012	1.38997e-012	1.53451e-012	1.53451e-012	1.67909e-012	1.99078e-012	2.13546e-012	
FineR133	-1.44005e-012	-1.29615e-012	-9.62429e-013	-8.64478e-013	-6.97562e-013	-5.30718e-013	-2.42576e-013	-9.84995e-014	4.56265e-014	3.5681e-013	5.0104e-013	6.4532e-013	7.89649e-013	1.10106e-012	1.24549e-012	1.41265e-012	1.38997e-012	1.70155e-012	1.84614e-012	1.99078e-012	2.13546e-012	
FineR134	-1.44005e-012	-1.12929e-012	-9.8545e-013	-8.41563e-013	-5.30626e-013	-3.86634e-013	-2.19724e-013	-9.85027e-014	2.12629e-013	3.34055e-013	5.0104e-013	6.4532e-013	9.7941e-013	1.12377e-012	1.26819e-012	1.41265e-012	1.55701e-012	1.70155e-012	1.84614e-012	2.01339e-012	2.32512e-012	
FineR135	-1.27308e-012	-1.12929e-012	-9.8545e-013	-8.41563e-013	-5.30626e-013	-3.86634e-013	-2.42593e-013	6.8514e-014	2.35443e-013	3.56854e-013	5.01099e-013	8.12431e-013	9.7941e-013	1.12377e-012	1.10106e-012	1.41253e-012	1.55701e-012	1.72421e-012	1.86878e-012	2.15783e-012	2.32512e-012	
FineR136	-1.2501e-012	-1.10633e-012	-9.62515e-013	-6.51652e-013	-5.30626e-013	-3.86634e-013	-7.55819e-014	9.13304e-014	2.35443e-013	3.56854e-013	6.90829e-013	8.12431e-013	7.8967e-013	1.10108e-012	1.26823e-012	1.41268e-012	1.55718e-012	1.8688e-012	2.03583e-012	2.15806e-012	2.30277e-012	
FineR137	-1.41681e-012	-1.27308e-012	-9.62303e-013	-6.51652e-013	-5.0773e-013	-1.96752e-013	-2.42505e-013	6.8514e-014	2.12659e-013	5.23882e-013	6.90911e-013	6.45351e-013	9.79469e-013	1.10108e-012	1.2908e-012	1.41268e-012	1.55718e-012	1.8688e-012	2.0134e-012	2.15806e-012	2.13543e-012	
FineR138	-1.24984e-012	-1.1061e-012	-9.62303e-013	-8.1846e-013	-5.07573e-013	-3.63625e-013	-2.19628e-013	-7.55819e-014	3.79681e-013	5.46681e-013	5.23882e-013	8.35164e-013	9.79469e-013	1.12382e-012	1.26823e-012	1.57973e-012	1.72424e-012	1.8688e-012	2.0134e-012	2.18069e-012	2.32514e-012	
FineR139	-1.24995e-012	-1.1061e-012	-9.6239e-013	-6.51471e-013	-5.07573e-013	-3.86552e-013	-2.19628e-013	6.85882e-014	3.79731e-013	5.46704e-013	6.90909e-013	8.35164e-013	9.79469e-013	1.12382e-012	1.43528e-012	1.60244e-012	1.74692e-012	1.89146e-012	2.20312e-012	2.18047e-012	2.32514e-012	
FineR140	-1.24995e-012	-1.1062e-012	-7.72365e-013	-6.51524e-013	-5.07573e-013	-1.96631e-013	-5.26148e-014	1.14287e-013	2.12723e-013	5.46704e-013	6.90909e-013	8.35164e-013	9.79469e-013	1.31361e-012	1.458e-012	1.57973e-012	1.74692e-012	2.05853e-012	2.03586e-012	2.18047e-012	2.32514e-012	
MinCout:	0	FineR:	126	FineC:	129

