	CoarseC0	CoarseC10	CoarseC20	CoarseC30	CoarseC40	CoarseC50	CoarseC60	CoarseC70	CoarseC80	CoarseC90	CoarseC100	CoarseC110	CoarseC120	CoarseC130	CoarseC140	CoarseC150	CoarseC160	CoarseC170	CoarseC180	CoarseC190	CoarseC200	CoarseC210	CoarseC220	CoarseC230	CoarseC240	CoarseC250	
CoarseR0	-1.32116e-009	-1.27197e-009	-1.22893e-009	-1.19298e-009	-1.16293e-009	-1.13763e-009	-1.1165e-009	-1.09831e-009	-1.0826e-009	-1.06931e-009	-1.05753e-009	-1.04782e-009	-1.03901e-009	-1.03168e-009	-1.02514e-009	-1.01941e-009	-1.01452e-009	-1.01049e-009	-1.0067e-009	-1.00364e-009	-1.00103e-009	-9.98829e-010	-9.9726e-010	-9.95259e-010	-9.94252e-010	-9.93335e-010	
CoarseR10	-9.74477e-010	-9.24707e-010	-8.85244e-010	-8.52176e-010	-8.24115e-010	-8.00375e-010	-7.80239e-010	-7.62912e-010	-7.47905e-010	-7.34955e-010	-7.23555e-010	-7.13882e-010	-7.05204e-010	-6.9789e-010	-6.91474e-010	-6.85859e-010	-6.80875e-010	-6.76834e-010	-6.73381e-010	-6.70347e-010	-6.67988e-010	-6.65936e-010	-6.64633e-010	-6.63824e-010	-6.63053e-010	-6.62914e-010	
CoarseR20	-7.56256e-010	-7.06979e-010	-6.70085e-010	-6.38901e-010	-6.12351e-010	-5.90227e-010	-5.71037e-010	-5.54432e-010	-5.40079e-010	-5.27467e-010	-5.16712e-010	-5.07342e-010	-4.99173e-010	-4.92263e-010	-4.8618e-010	-4.81119e-010	-4.76912e-010	-4.73525e-010	-4.70511e-010	-4.6838e-010	-4.66451e-010	-4.65223e-010	-4.64335e-010	-4.63978e-010	-4.63852e-010	-4.64001e-010	
CoarseR30	-6.0696e-010	-5.59148e-010	-5.24354e-010	-4.94937e-010	-4.69647e-010	-4.48274e-010	-4.29896e-010	-4.14046e-010	-4.00101e-010	-3.8829e-010	-3.77966e-010	-3.69259e-010	-3.61729e-010	-3.55477e-010	-3.50078e-010	-3.45425e-010	-3.41548e-010	-3.38569e-010	-3.36034e-010	-3.34219e-010	-3.32939e-010	-3.31998e-010	-3.31724e-010	-3.31748e-010	-3.32357e-010	-3.33185e-010	
CoarseR40	-4.97366e-010	-4.51654e-010	-4.18071e-010	-3.8984e-010	-3.65449e-010	-3.44955e-010	-3.27311e-010	-3.11857e-010	-2.98864e-010	-2.87586e-010	-2.77937e-010	-2.69874e-010	-2.62645e-010	-2.5689e-010	-2.51924e-010	-2.47665e-010	-2.44435e-010	-2.41716e-010	-2.39853e-010	-2.38428e-010	-2.37723e-010	-2.37541e-010	-2.3767e-010	-2.38358e-010	-2.39635e-010	-2.41165e-010	
CoarseR50	-4.13584e-010	-3.69381e-010	-3.37017e-010	-3.09517e-010	-2.85995e-010	-2.66274e-010	-2.49217e-010	-2.34761e-010	-2.22174e-010	-2.11507e-010	-2.02393e-010	-1.94406e-010	-1.87861e-010	-1.82316e-010	-1.77911e-010	-1.74322e-010	-1.71446e-010	-1.69275e-010	-1.67783e-010	-1.67205e-010	-1.67136e-010	-1.67476e-010	-1.68406e-010	-1.69897e-010	-1.71916e-010	-1.74581e-010	
CoarseR60	-3.47467e-010	-3.04765e-010	-2.7327e-010	-2.46431e-010	-2.23754e-010	-2.04487e-010	-1.88012e-010	-1.73887e-010	-1.61976e-010	-1.5162e-010	-1.4287e-010	-1.35531e-010	-1.29472e-010	-1.24426e-010	-1.20353e-010	-1.17106e-010	-1.14893e-010	-1.13217e-010	-1.12553e-010	-1.12429e-010	-1.13019e-010	-1.1435e-010	-1.16049e-010	-1.18628e-010	-1.21779e-010	-1.2564e-010	
CoarseR70	-2.94206e-010	-2.52388e-010	-2.21603e-010	-1.95706e-010	-1.73521e-010	-1.54753e-010	-1.3885e-010	-1.25198e-010	-1.13572e-010	-1.03828e-010	-9.52212e-011	-8.85102e-011	-8.27877e-011	-7.82201e-011	-7.46164e-011	-7.20076e-011	-7.02872e-011	-6.94278e-011	-6.92352e-011	-6.99163e-011	-7.13176e-011	-7.3618e-011	-7.65699e-011	-8.02907e-011	-8.50077e-011	-9.05219e-011	
CoarseR80	-2.49862e-010	-2.09031e-010	-1.78843e-010	-1.53583e-010	-1.31676e-010	-1.13478e-010	-9.79924e-011	-8.48996e-011	-7.35481e-011	-6.41206e-011	-5.62701e-011	-4.95418e-011	-4.44441e-011	-4.03371e-011	-3.7049e-011	-3.49404e-011	-3.40094e-011	-3.37831e-011	-3.44109e-011	-3.58994e-011	-3.8302e-011	-4.16871e-011	-4.60974e-011	-5.14978e-011	-5.93026e-011	-6.76185e-011	
CoarseR90	-2.12428e-010	-1.72215e-010	-1.42648e-010	-1.17709e-010	-9.63856e-011	-7.85883e-011	-6.35043e-011	-5.06615e-011	-3.9584e-011	-3.05684e-011	-2.30199e-011	-1.70613e-011	-1.20898e-011	-8.4483e-012	-5.80547e-012	-4.18794e-012	-3.76262e-012	-4.36495e-012	-5.96296e-012	-8.4606e-012	-1.21191e-011	-1.71209e-011	-2.42473e-011	-3.28592e-011	-4.11553e-011	-4.96735e-011	
CoarseR100	-1.80069e-010	-1.40403e-010	-1.1152e-010	-8.69827e-011	-6.61582e-011	-4.87403e-011	-3.40311e-011	-2.14523e-011	-1.0802e-011	-2.0588e-012	5.2204e-012	1.10515e-011	1.5365e-011	1.87117e-011	2.0535e-011	2.13213e-011	2.10996e-011	1.96663e-011	1.72363e-011	1.34393e-011	8.0072e-012	-2.01191e-013	-8.9278e-012	-1.79201e-011	-2.63923e-011	-3.44323e-011	
CoarseR110	-1.51842e-010	-1.12799e-010	-8.42078e-011	-6.01714e-011	-3.95752e-011	-2.23494e-011	-7.89068e-012	4.29237e-012	1.45271e-011	2.2993e-011	2.98154e-011	3.53325e-011	3.91959e-011	4.20475e-011	4.3369e-011	4.36712e-011	4.26015e-011	4.03409e-011	3.63848e-011	3.06946e-011	2.15981e-011	1.29315e-011	3.56453e-012	-5.17269e-012	-1.32809e-011	-2.07538e-011	
CoarseR120	-1.27053e-010	-8.86964e-011	-6.03025e-011	-3.6742e-011	-1.62882e-011	6.81629e-013	1.47731e-011	2.68615e-011	3.68249e-011	4.50335e-011	5.17133e-011	5.65966e-011	6.01323e-011	6.23142e-011	6.2963e-011	6.24042e-011	6.08297e-011	5.70601e-011	5.12291e-011	4.21591e-011	3.29091e-011	2.36185e-011	1.48055e-011	6.4689e-012	-1.19775e-012	-8.21754e-012	
CoarseR130	-1.04937e-010	-6.70634e-011	-3.91237e-011	-1.5586e-011	4.32737e-012	2.11295e-011	3.5278e-011	4.71065e-011	5.68287e-011	6.47195e-011	7.0782e-011	7.53449e-011	7.85352e-011	8.00622e-011	8.03592e-011	7.91224e-011	7.58519e-011	7.06323e-011	6.14395e-011	5.1903e-011	4.2354e-011	3.34613e-011	2.51026e-011	1.72272e-011	1.01781e-011	3.14389e-012	
CoarseR140	-8.53657e-011	-4.77273e-011	-2.01114e-011	3.11306e-012	2.29831e-011	3.96948e-011	5.34488e-011	6.50564e-011	7.46194e-011	8.22472e-011	8.83192e-011	9.23955e-011	9.49168e-011	9.60895e-011	9.57084e-011	9.34246e-011	8.86528e-011	8.00622e-011	7.04036e-011	6.0587e-011	5.16412e-011	4.30393e-011	3.51581e-011	2.75968e-011	2.05474e-011	1.40143e-011	
CoarseR150	-6.76971e-011	-3.02039e-011	-2.8785e-012	2.03327e-011	4.01726e-011	5.65253e-011	7.01891e-011	8.16776e-011	9.08265e-011	9.82984e-011	1.04075e-010	1.0778e-010	1.09982e-010	1.1063e-010	1.0918e-010	1.05729e-010	9.7969e-011	8.84448e-011	7.81925e-011	6.91813e-011	6.03544e-011	5.2276e-011	4.43609e-011	3.73151e-011	3.06414e-011	2.4111e-011	
CoarseR160	-5.14459e-011	-1.42457e-011	1.29431e-011	3.59425e-011	5.56035e-011	7.18988e-011	8.55008e-011	9.68775e-011	1.05889e-010	1.13053e-010	1.18314e-010	1.21714e-010	1.23544e-010	1.23324e-010	1.21201e-010	1.15374e-010	1.05987e-010	9.57488e-011	8.59787e-011	7.7123e-011	6.86307e-011	6.08849e-011	5.33147e-011	4.64858e-011	4.00069e-011	3.36922e-011	
CoarseR170	-3.68978e-011	2.1994e-014	2.72095e-011	5.00502e-011	6.94999e-011	8.57153e-011	9.92049e-011	1.10355e-010	1.19404e-010	1.26083e-010	1.31364e-010	1.34402e-010	1.35537e-010	1.34759e-010	1.31284e-010	1.22605e-010	1.12845e-010	1.02969e-010	9.3527e-011	8.48337e-011	7.65439e-011	6.89654e-011	6.16309e-011	5.5176e-011	4.87577e-011	4.26742e-011	
CoarseR180	-2.35695e-011	1.32136e-011	4.03142e-011	6.31331e-011	8.25603e-011	9.86773e-011	1.12279e-010	1.23074e-010	1.32019e-010	1.38552e-010	1.4351e-010	1.46201e-010	1.466e-010	1.45153e-010	1.39362e-010	1.29808e-010	1.19471e-010	1.09777e-010	1.00652e-010	9.23333e-011	8.46063e-011	7.69204e-011	6.99497e-011	6.33787e-011	5.7384e-011	5.17396e-011	
CoarseR190	-1.14092e-011	2.53095e-011	5.21965e-011	7.50387e-011	9.43907e-011	1.10651e-010	1.23963e-010	1.34809e-010	1.43613e-010	1.50185e-010	1.54429e-010	1.56773e-010	1.57026e-010	1.54167e-010	1.46141e-010	1.36061e-010	1.25889e-010	1.16546e-010	1.07484e-010	9.95261e-011	9.18285e-011	8.47422e-011	7.80409e-011	7.1516e-011	6.5596e-011	5.9863e-011	
CoarseR200	-1.91275e-013	3.62713e-011	6.31618e-011	8.59526e-011	1.05424e-010	1.21597e-010	1.34826e-010	1.45554e-010	1.54217e-010	1.60639e-010	1.64717e-010	1.66709e-010	1.66244e-010	1.61683e-010	1.52258e-010	1.41975e-010	1.32157e-010	1.23204e-010	1.14527e-010	1.0663e-010	9.91613e-011	9.21312e-011	8.54848e-011	7.94333e-011	7.34114e-011	6.79453e-011	
CoarseR210	9.99497e-012	4.66045e-011	7.35295e-011	9.62568e-011	1.15543e-010	1.31643e-010	1.44931e-010	1.5573e-010	1.64093e-010	1.70316e-010	1.74237e-010	1.75738e-010	1.74724e-010	1.68213e-010	1.58255e-010	1.47946e-010	1.38561e-010	1.29636e-010	1.21359e-010	1.13542e-010	1.06142e-010	9.9379e-011	9.27926e-011	8.68369e-011	8.10987e-011	7.55727e-011	
CoarseR220	1.91393e-011	5.58772e-011	8.26344e-011	1.05645e-010	1.25092e-010	1.41094e-010	1.54464e-010	1.64972e-010	1.73524e-010	1.79437e-010	1.83007e-010	1.84338e-010	1.82311e-010	1.74128e-010	1.63779e-010	1.53705e-010	1.44718e-010	1.35861e-010	1.27637e-010	1.20244e-010	1.12955e-010	1.06269e-010	9.9976e-011	9.39167e-011	8.8468e-011	8.30334e-011	
CoarseR230	2.77838e-011	6.45267e-011	9.14768e-011	1.14345e-010	1.33824e-010	1.49809e-010	1.63052e-010	1.73813e-010	1.82232e-010	1.87984e-010	1.91396e-010	1.92343e-010	1.88732e-010	1.79874e-010	1.69465e-010	1.5959e-010	1.50506e-010	1.42054e-010	1.33901e-010	1.26623e-010	1.19567e-010	1.13162e-010	1.0696e-010	1.01025e-010	9.54836e-011	9.035e-011	
CoarseR240	3.56001e-011	7.24137e-011	9.95e-011	1.22358e-010	1.41951e-010	1.58167e-010	1.71356e-010	1.81957e-010	1.90236e-010	1.95877e-010	1.99307e-010	1.99589e-010	1.94605e-010	1.85018e-010	1.74993e-010	1.65386e-010	1.56506e-010	1.4816e-010	1.40278e-010	1.32899e-010	1.26124e-010	1.19601e-010	1.13554e-010	1.07906e-010	1.02319e-010	9.71123e-011	
CoarseR250	4.29277e-011	7.96137e-011	1.0687e-010	1.29881e-010	1.49405e-010	1.65546e-010	1.78791e-010	1.89664e-010	1.97618e-010	2.03296e-010	2.06567e-010	2.06315e-010	2.00018e-010	1.90196e-010	1.80257e-010	1.7109e-010	1.62271e-010	1.53997e-010	1.46206e-010	1.39096e-010	1.32446e-010	1.26051e-010	1.19925e-010	1.14384e-010	1.09123e-010	1.04062e-010	
MinCout:	2.1994e-014	CoarseR:	170	CoarseC:	10

	CoarseC50	CoarseC51	CoarseC52	CoarseC53	CoarseC54	CoarseC55	CoarseC56	CoarseC57	CoarseC58	CoarseC59	CoarseC60	CoarseC61	CoarseC62	CoarseC63	CoarseC64	CoarseC65	CoarseC66	CoarseC67	CoarseC68	CoarseC69	CoarseC70	
CoarseR110	-2.23494e-011	-2.07599e-011	-1.93288e-011	-1.76163e-011	-1.63219e-011	-1.47647e-011	-1.33249e-011	-1.18842e-011	-1.04595e-011	-9.17657e-012	-7.9105e-012	-6.62271e-012	-5.19032e-012	-3.91791e-012	-2.78785e-012	-1.33005e-012	-3.74823e-013	1.06872e-012	2.02777e-012	3.3299e-012	4.45248e-012	
CoarseR111	-1.98032e-011	-1.83946e-011	-1.69644e-011	-1.53715e-011	-1.37978e-011	-1.22005e-011	-1.07812e-011	-9.50166e-012	-8.08015e-012	-6.6353e-012	-5.35118e-012	-4.10264e-012	-2.81393e-012	-1.37992e-012	-2.50556e-013	8.83044e-013	2.16041e-012	3.44001e-012	4.56146e-012	5.69912e-012	6.80697e-012	
CoarseR112	-1.756e-011	-1.59942e-011	-1.44241e-011	-1.28317e-011	-1.13982e-011	-9.82145e-012	-8.54494e-012	-6.94537e-012	-5.68522e-012	-4.26043e-012	-2.99587e-012	-1.691e-012	-4.4127e-013	8.48146e-013	2.13946e-012	3.41412e-012	4.54851e-012	5.82731e-012	6.94461e-012	8.06675e-012	9.18767e-012	
CoarseR113	-1.51869e-011	-1.35995e-011	-1.20101e-011	-1.05798e-011	-9.1681e-012	-7.5922e-012	-6.17588e-012	-4.89832e-012	-3.27683e-012	-2.03478e-012	-7.51749e-013	5.13812e-013	1.96298e-012	3.23276e-012	4.36054e-012	5.63433e-012	6.91026e-012	8.04503e-012	9.32497e-012	1.03004e-011	1.15842e-011	
CoarseR114	-1.27585e-011	-1.11925e-011	-9.62523e-012	-8.19568e-012	-6.76352e-012	-5.18848e-012	-3.73291e-012	-2.47676e-012	-1.057e-012	3.84998e-013	1.64767e-012	2.93151e-012	4.19828e-012	5.46721e-012	6.77541e-012	8.04829e-012	9.16202e-012	1.04207e-011	1.15547e-011	1.26747e-011	1.38121e-011	
CoarseR115	-1.0359e-011	-8.95655e-012	-7.50769e-012	-5.77797e-012	-4.50837e-012	-2.93418e-012	-1.35778e-012	-8.23051e-014	1.19489e-012	2.77815e-012	3.91643e-012	5.34238e-012	6.60831e-012	7.89476e-012	9.0208e-012	1.02754e-011	1.14051e-011	1.26626e-011	1.3798e-011	1.49145e-011	1.60536e-011	
CoarseR116	-8.08857e-012	-6.52487e-012	-5.07699e-012	-3.69135e-012	-2.07932e-012	-5.06018e-013	7.26122e-013	2.02053e-012	3.62037e-012	4.87902e-012	6.15952e-012	7.44117e-012	8.70605e-012	9.95383e-012	1.12423e-011	1.25315e-011	1.38048e-011	1.50976e-011	1.60322e-011	1.73304e-011	1.84502e-011	
CoarseR117	-5.84835e-012	-4.42433e-012	-2.83783e-012	-1.43227e-012	-2.40425e-015	1.57009e-012	3.00292e-012	4.2767e-012	5.69399e-012	7.11396e-012	8.4128e-012	9.67486e-012	1.09575e-011	1.22237e-011	1.33482e-011	1.47818e-011	1.58909e-011	1.71826e-011	1.82801e-011	1.94116e-011	2.05487e-011	
CoarseR118	-3.73586e-012	-2.15213e-012	-5.66267e-013	1.02172e-012	2.2677e-012	3.83944e-012	5.10976e-012	6.72656e-012	7.98122e-012	9.23699e-012	1.05159e-011	1.19396e-011	1.32211e-011	1.45059e-011	1.56125e-011	1.68803e-011	1.81712e-011	1.94259e-011	2.04113e-011	2.16724e-011	2.26444e-011	
CoarseR119	-1.42992e-012	1.31879e-013	1.37208e-012	2.95939e-012	4.54883e-012	6.11965e-012	7.4095e-012	8.66103e-012	1.00968e-011	1.15148e-011	1.2773e-011	1.40518e-011	1.53142e-011	1.65967e-011	1.7702e-011	1.89881e-011	2.02781e-011	2.13688e-011	2.26439e-011	2.36131e-011	2.47277e-011	
CoarseR120	6.81629e-013	2.10317e-012	3.68738e-012	5.25257e-012	6.53774e-012	8.08753e-012	9.68054e-012	1.0952e-011	1.22034e-011	1.36403e-011	1.49177e-011	1.61769e-011	1.74563e-011	1.87197e-011	1.9842e-011	2.12728e-011	2.22159e-011	2.35047e-011	2.47979e-011	2.57301e-011	2.70083e-011	
CoarseR121	2.82826e-012	4.38786e-012	5.82934e-012	7.39358e-012	8.82136e-012	1.03692e-011	1.16363e-011	1.29069e-011	1.45033e-011	1.5776e-011	1.70526e-011	1.83109e-011	1.97324e-011	2.08317e-011	2.19531e-011	2.32198e-011	2.45085e-011	2.576e-011	2.67418e-011	2.80168e-011	2.89662e-011	
CoarseR122	4.93918e-012	6.54162e-012	7.9633e-012	9.3627e-012	1.07883e-011	1.23772e-011	1.37643e-011	1.52169e-011	1.64677e-011	1.77393e-011	1.91787e-011	2.04359e-011	2.16954e-011	2.29747e-011	2.42585e-011	2.55044e-011	2.6465e-011	2.77351e-011	2.90074e-011	2.997e-011	3.12498e-011	
CoarseR123	7.08251e-012	8.50156e-012	1.00835e-011	1.16677e-011	1.29284e-011	1.44953e-011	1.60668e-011	1.73338e-011	1.85839e-011	2.00211e-011	2.12937e-011	2.25503e-011	2.38091e-011	2.50876e-011	2.62074e-011	2.74724e-011	2.87563e-011	2.98616e-011	3.09885e-011	3.19335e-011	3.32089e-011	
CoarseR124	9.09646e-012	1.06531e-011	1.22361e-011	1.36334e-011	1.50793e-011	1.66238e-011	1.78876e-011	1.932e-011	2.05876e-011	2.20195e-011	2.32743e-011	2.45297e-011	2.59506e-011	2.70646e-011	2.83469e-011	2.9611e-011	3.05492e-011	3.18176e-011	3.31081e-011	3.40521e-011	3.51818e-011	
CoarseR125	1.12387e-011	1.28168e-011	1.4236e-011	1.57987e-011	1.70573e-011	1.86225e-011	2.02117e-011	2.14977e-011	2.29102e-011	2.41573e-011	2.54308e-011	2.66854e-011	2.79422e-011	2.92014e-011	3.03365e-011	3.15996e-011	3.27212e-011	3.39682e-011	3.50936e-011	3.62006e-011	3.731e-011	
CoarseR126	1.32265e-011	1.4643e-011	1.62226e-011	1.78044e-011	1.90619e-011	2.06261e-011	2.20336e-011	2.32972e-011	2.4709e-011	2.61392e-011	2.72279e-011	2.86675e-011	2.99407e-011	3.11949e-011	3.24757e-011	3.34094e-011	3.46942e-011	3.59607e-011	3.70648e-011	3.8171e-011	3.9299e-011	
CoarseR127	1.52262e-011	1.68028e-011	1.82203e-011	1.98012e-011	2.10575e-011	2.26426e-011	2.41894e-011	2.54519e-011	2.68848e-011	2.81511e-011	2.94016e-011	3.06717e-011	3.20915e-011	3.33487e-011	3.43002e-011	3.5578e-011	3.66772e-011	3.79427e-011	3.88809e-011	4.01709e-011	4.11129e-011	
CoarseR128	1.74426e-011	1.88371e-011	2.02495e-011	2.18072e-011	2.32503e-011	2.48125e-011	2.62185e-011	2.74798e-011	2.87248e-011	3.01554e-011	3.14264e-011	3.2674e-011	3.39492e-011	3.52008e-011	3.63374e-011	3.75765e-011	3.86955e-011	3.99392e-011	4.12266e-011	4.21655e-011	4.32918e-011	
CoarseR129	1.92508e-011	2.08257e-011	2.20985e-011	2.36549e-011	2.5078e-011	2.66393e-011	2.80597e-011	2.93229e-011	3.07295e-011	3.21414e-011	3.32445e-011	3.45167e-011	3.57695e-011	3.70413e-011	3.82985e-011	3.9558e-011	4.06764e-011	4.1935e-011	4.28915e-011	4.39944e-011	4.52848e-011	
CoarseR130	2.11095e-011	2.26883e-011	2.42644e-011	2.5677e-011	2.70768e-011	2.86599e-011	3.00828e-011	3.13236e-011	3.27726e-011	3.39957e-011	3.52653e-011	3.66809e-011	3.79499e-011	3.92042e-011	4.03181e-011	4.15715e-011	4.26889e-011	4.37859e-011	4.4886e-011	4.61531e-011	4.71122e-011	
MinCout:	-2.40425e-015	CoarseR:	117	CoarseC:	54

	FineC0	FineC10	FineC20	FineC30	FineC40	FineC50	FineC60	FineC70	FineC80	FineC90	FineC100	FineC110	FineC120	FineC130	FineC140	FineC150	FineC160	FineC170	FineC180	FineC190	FineC200	FineC210	FineC220	FineC230	FineC240	FineC250	
FineR0	-1.22513e-010	-9.93093e-011	-8.54842e-011	-7.52444e-011	-6.73267e-011	-6.11505e-011	-5.62887e-011	-5.22545e-011	-4.87626e-011	-4.60616e-011	-4.34346e-011	-4.14409e-011	-3.95662e-011	-3.79736e-011	-3.6377e-011	-3.5224e-011	-3.40686e-011	-3.30603e-011	-3.20458e-011	-3.11591e-011	-3.02914e-011	-2.9723e-011	-2.89793e-011	-2.8429e-011	-2.79889e-011	-2.72466e-011	
FineR10	-1.05684e-010	-8.27929e-011	-6.89687e-011	-5.88001e-011	-5.10255e-011	-4.48618e-011	-3.99663e-011	-3.5943e-011	-3.24827e-011	-2.96081e-011	-2.7325e-011	-2.5179e-011	-2.32914e-011	-2.15597e-011	-2.01283e-011	-1.89795e-011	-1.78282e-011	-1.6819e-011	-1.59725e-011	-1.51049e-011	-1.42187e-011	-1.34932e-011	-1.29305e-011	-1.23299e-011	-1.17646e-011	-1.11659e-011	
FineR20	-9.84062e-011	-7.55413e-011	-6.15728e-011	-5.13844e-011	-4.37783e-011	-3.76036e-011	-3.27367e-011	-2.87201e-011	-2.52846e-011	-2.23953e-011	-1.99376e-011	-1.79557e-011	-1.60907e-011	-1.43621e-011	-1.2895e-011	-1.17675e-011	-1.06204e-011	-9.45293e-012	-8.58683e-012	-7.74013e-012	-7.03572e-012	-6.2925e-012	-5.56925e-012	-4.9873e-012	-4.40715e-012	-3.98801e-012	
FineR30	-9.41514e-011	-7.12678e-011	-5.74352e-011	-4.72856e-011	-3.95081e-011	-3.33788e-011	-2.84746e-011	-2.44828e-011	-2.10083e-011	-1.83024e-011	-1.58693e-011	-1.37067e-011	-1.18453e-011	-1.01188e-011	-8.83316e-012	-7.52792e-012	-6.3811e-012	-5.37652e-012	-4.36919e-012	-3.5045e-012	-2.7832e-012	-2.07956e-012	-1.49945e-012	-7.75746e-013	-3.5745e-013	7.92039e-014	
FineR40	-9.15896e-011	-6.85613e-011	-5.49281e-011	-4.45961e-011	-3.68463e-011	-3.06995e-011	-2.5796e-011	-2.17872e-011	-1.83382e-011	-1.56347e-011	-1.3041e-011	-1.10638e-011	-9.16222e-012	-7.59898e-012	-6.15508e-012	-4.86905e-012	-3.74262e-012	-2.57671e-012	-1.71426e-012	-8.31993e-013	-1.28266e-013	5.93333e-013	1.1544e-012	1.91416e-012	2.31358e-012	2.8931e-012	
FineR50	-8.96285e-011	-6.69137e-011	-5.29484e-011	-4.27774e-011	-3.50326e-011	-2.88897e-011	-2.40131e-011	-1.99834e-011	-1.67167e-011	-1.3694e-011	-1.1243e-011	-9.10629e-012	-7.38654e-012	-5.64376e-012	-4.38123e-012	-2.93478e-012	-1.93319e-012	-9.48751e-013	7.55387e-014	9.38682e-013	1.65875e-012	2.52445e-012	3.10361e-012	3.68137e-012	4.24373e-012	4.66166e-012	
FineR60	-8.83339e-011	-6.54741e-011	-5.16917e-011	-4.13176e-011	-3.35988e-011	-2.74371e-011	-2.25629e-011	-1.8579e-011	-1.51094e-011	-1.22709e-011	-1.00014e-011	-7.82511e-012	-5.96571e-012	-4.22281e-012	-2.78037e-012	-1.67756e-012	-4.95862e-013	6.6931e-013	1.49269e-012	2.35528e-012	3.07629e-012	3.77862e-012	4.53732e-012	4.93514e-012	5.67678e-012	6.0944e-012	
FineR70	-8.72538e-011	-6.44239e-011	-5.04288e-011	-4.04028e-011	-3.25037e-011	-2.65245e-011	-2.16525e-011	-1.74885e-011	-1.42246e-011	-1.13439e-011	-8.91579e-012	-6.76055e-012	-5.04372e-012	-3.3218e-012	-1.89927e-012	-5.96755e-013	5.46779e-013	1.71093e-012	2.39125e-012	3.41633e-012	4.13579e-012	4.85654e-012	5.41614e-012	6.15688e-012	6.59161e-012	7.1523e-012	
FineR80	-8.65041e-011	-6.35204e-011	-4.97193e-011	-3.95065e-011	-3.16355e-011	-2.56353e-011	-2.07644e-011	-1.66013e-011	-1.33162e-011	-1.04797e-011	-8.00966e-012	-5.85605e-012	-4.15961e-012	-2.43812e-012	-9.9637e-013	2.86268e-013	1.42946e-012	2.45081e-012	3.29217e-012	4.17289e-012	5.01757e-012	5.75649e-012	6.31626e-012	7.05682e-012	7.45492e-012	8.05188e-012	
FineR90	-8.58174e-011	-6.28158e-011	-4.89857e-011	-3.8802e-011	-3.10626e-011	-2.47454e-011	-1.98754e-011	-1.58955e-011	-1.27499e-011	-9.73168e-012	-7.3057e-012	-5.15154e-012	-3.2938e-012	-1.73414e-012	-2.92898e-013	1.17106e-012	2.15163e-012	3.15348e-012	4.17628e-012	5.03789e-012	5.73838e-012	6.45959e-012	7.18117e-012	7.59641e-012	8.33757e-012	8.75477e-012	
FineR100	-8.51055e-011	-6.22591e-011	-4.82952e-011	-3.80854e-011	-3.05094e-011	-2.42186e-011	-1.93492e-011	-1.55081e-011	-1.19035e-011	-9.20689e-012	-6.59875e-012	-4.6269e-012	-2.75e-012	-1.0291e-012	2.50161e-013	1.69442e-012	2.67478e-012	3.67646e-012	4.69915e-012	5.57964e-012	6.27937e-012	6.9821e-012	7.5584e-012	8.29862e-012	8.87852e-012	9.45668e-012	
FineR110	-8.46962e-011	-6.17216e-011	-4.79215e-011	-3.77176e-011	-2.98499e-011	-2.36914e-011	-1.88226e-011	-1.48212e-011	-1.13778e-011	-8.68164e-012	-6.23533e-012	-4.08224e-012	-2.2054e-012	-6.46735e-013	7.74101e-013	2.23752e-012	3.21746e-012	4.21918e-012	5.22249e-012	6.1029e-012	6.80247e-012	7.52327e-012	8.24462e-012	8.82147e-012	9.40042e-012	9.8174e-012	
FineR120	-8.43147e-011	-6.15056e-011	-4.7523e-011	-3.71896e-011	-2.94542e-011	-2.35061e-011	-1.84551e-011	-1.44547e-011	-1.11736e-011	-8.15631e-012	-5.87096e-012	-3.71843e-012	-1.86199e-012	-1.41921e-013	1.29857e-012	2.59975e-012	3.74172e-012	4.7434e-012	5.60306e-012	6.4456e-012	7.32717e-012	8.04671e-012	8.60602e-012	9.34623e-012	9.74381e-012	1.03406e-011	
FineR130	-8.38183e-011	-6.10069e-011	-4.70229e-011	-3.68446e-011	-2.89522e-011	-2.2957e-011	-1.79302e-011	-1.39299e-011	-1.06268e-011	-7.79178e-012	-5.36649e-012	-3.19355e-012	-1.33708e-012	2.21295e-013	1.66158e-012	2.94337e-012	4.10433e-012	5.10535e-012	6.10828e-012	6.98843e-012	7.68767e-012	8.40899e-012	9.14825e-012	9.52609e-012	1.0267e-011	1.07026e-011	
FineR140	-8.34744e-011	-6.06314e-011	-4.66791e-011	-3.64737e-011	-2.87656e-011	-2.26133e-011	-1.77462e-011	-1.37456e-011	-1.02815e-011	-7.42671e-012	-5.02287e-012	-3.01106e-012	-9.73369e-013	5.84662e-013	2.00494e-012	3.30582e-012	4.44788e-012	5.44889e-012	6.28902e-012	7.14987e-012	8.03117e-012	8.76945e-012	9.30952e-012	1.00684e-011	1.04657e-011	1.08814e-011	
FineR150	-8.32832e-011	-6.02873e-011	-4.64671e-011	-3.63145e-011	-2.85574e-011	-2.2245e-011	-1.73789e-011	-1.33791e-011	-1.01202e-011	-7.08221e-012	-4.81895e-012	-2.66705e-012	-6.49655e-013	9.28284e-013	2.34865e-012	3.48766e-012	4.79112e-012	5.79201e-012	6.65132e-012	7.51198e-012	8.37484e-012	8.93207e-012	9.67118e-012	1.02311e-011	1.08083e-011	1.1225e-011	
FineR160	-8.29311e-011	-6.00984e-011	-4.61431e-011	-3.59433e-011	-2.82106e-011	-2.18988e-011	-1.7192e-011	-1.31953e-011	-9.77527e-012	-6.89924e-012	-4.63629e-012	-2.32294e-012	-6.28953e-013	1.11035e-012	2.53039e-012	3.83113e-012	4.97255e-012	5.97329e-012	6.99444e-012	7.69302e-012	8.55578e-012	9.29401e-012	9.85194e-012	1.05917e-011	1.09889e-011	1.15853e-011	
FineR170	-8.27398e-011	-5.99036e-011	-4.59555e-011	-3.57804e-011	-2.80478e-011	-2.18753e-011	-1.68489e-011	-1.30115e-011	-9.56991e-012	-6.7162e-012	-4.29185e-012	-2.14048e-012	-4.46736e-013	1.45401e-012	2.7317e-012	4.03202e-012	5.15404e-012	6.3166e-012	7.15635e-012	8.03613e-012	8.75506e-012	9.45586e-012	1.01948e-011	1.07546e-011	1.13317e-011	1.1766e-011	
FineR180	-8.25484e-011	-5.97463e-011	-4.57679e-011	-3.55668e-011	-2.78622e-011	-2.17127e-011	-1.66645e-011	-1.26875e-011	-9.38642e-012	-6.53308e-012	-3.94791e-012	-1.95794e-012	-1.03004e-013	1.63609e-012	2.91359e-012	4.19407e-012	5.3546e-012	6.51681e-012	7.33764e-012	8.21733e-012	8.93615e-012	9.63685e-012	1.03567e-011	1.09355e-011	1.15124e-011	1.19278e-011	
FineR190	-8.251e-011	-5.95515e-011	-4.56049e-011	-3.54039e-011	-2.76738e-011	-2.13662e-011	-1.65018e-011	-1.25045e-011	-9.06406e-012	-6.37071e-012	-3.76504e-012	-1.6141e-012	7.93036e-014	1.79826e-012	3.07571e-012	4.35615e-012	5.49709e-012	6.67885e-012	7.35624e-012	8.21727e-012	9.09811e-012	9.8169e-012	1.03756e-011	1.11152e-011	1.15299e-011	1.21262e-011	
FineR200	-8.2196e-011	-5.92091e-011	-4.55739e-011	-3.52461e-011	-2.74922e-011	-2.13649e-011	-1.63158e-011	-1.23205e-011	-9.06319e-012	-6.18692e-012	-3.7644e-012	-1.61356e-012	2.41549e-013	1.81838e-012	3.25736e-012	4.70019e-012	5.67875e-012	6.67894e-012	7.70041e-012	8.56063e-012	9.27836e-012	1.01612e-011	1.05555e-011	1.12772e-011	1.18743e-011	1.24341e-011	
FineR210	-8.21937e-011	-5.92069e-011	-4.5256e-011	-3.50323e-011	-2.73293e-011	-2.10197e-011	-1.61558e-011	-1.21579e-011	-8.85762e-012	-6.00495e-012	-3.58113e-012	-1.43086e-012	2.62183e-013	2.16233e-012	3.60137e-012	4.71964e-012	6.04187e-012	7.02314e-012	7.86248e-012	8.74199e-012	9.46061e-012	1.01611e-011	1.08999e-011	1.12948e-011	1.20363e-011	1.24515e-011	
FineR220	-8.18796e-011	-5.9173e-011	-4.52293e-011	-3.50306e-011	-2.71664e-011	-2.10184e-011	-1.59931e-011	-1.19974e-011	-8.69678e-012	-5.84246e-012	-3.41968e-012	-1.40981e-012	6.06032e-013	2.16274e-012	3.60172e-012	4.88183e-012	6.02247e-012	7.04205e-012	7.88114e-012	8.72268e-012	9.62268e-012	1.03232e-011	1.08807e-011	1.16203e-011	1.20349e-011	1.24513e-011	
FineR230	-8.18411e-011	-5.88565e-011	-4.48823e-011	-3.47113e-011	-2.69821e-011	-2.09926e-011	-1.59685e-011	-1.19738e-011	-8.53418e-012	-5.65991e-012	-3.25723e-012	-1.08629e-012	6.06548e-013	2.18293e-012	3.60165e-012	5.06352e-012	6.04231e-012	7.20421e-012	8.20604e-012	9.06614e-012	9.62168e-012	1.05226e-011	1.12241e-011	1.1638e-011	1.22173e-011	1.27946e-011	
FineR240	-8.16879e-011	-5.88487e-011	-4.4905e-011	-3.47062e-011	-2.68232e-011	-2.06474e-011	-1.57851e-011	-1.17885e-011	-8.51052e-012	-5.65858e-012	-3.23538e-012	-1.08562e-012	7.68783e-013	2.50698e-012	3.92591e-012	5.06383e-012	6.36628e-012	7.36623e-012	8.22474e-012	9.08556e-012	9.94687e-012	1.05034e-011	1.1224e-011	1.16379e-011	1.23971e-011	1.27944e-011	
FineR250	-8.16777e-011	-5.86671e-011	-4.4903e-011	-3.45245e-011	-2.67961e-011	-2.06459e-011	-1.57838e-011	-1.1628e-011	-8.35038e-012	-5.49649e-012	-3.05324e-012	-9.03435e-013	9.30778e-013	2.5272e-012	3.94576e-012	5.40751e-012	6.36652e-012	7.36641e-012	8.38766e-012	9.24763e-012	9.9469e-012	1.08479e-011	1.12419e-011	1.19635e-011	1.23779e-011	1.28119e-011	
MinCout:	7.55387e-014	FineR:	50	FineC:	180

	FineC120	FineC121	FineC122	FineC123	FineC124	FineC125	FineC126	FineC127	FineC128	FineC129	FineC130	FineC131	FineC132	FineC133	FineC134	FineC135	FineC136	FineC137	FineC138	FineC139	FineC140	
FineR110	-2.06411e-012	-1.92259e-012	-1.78103e-012	-1.63942e-012	-1.33607e-012	-1.19437e-012	-1.21422e-012	-9.10828e-013	-7.88784e-013	-6.27068e-013	-4.85161e-013	-3.43208e-013	-2.01209e-013	-5.91654e-014	2.44662e-013	2.24959e-013	3.67116e-013	5.09319e-013	6.51567e-013	7.93861e-013	9.35987e-013	
FineR111	-2.04417e-012	-1.90267e-012	-1.78103e-012	-1.47773e-012	-1.31621e-012	-1.35594e-012	-1.21422e-012	-9.10746e-013	-7.6893e-013	-6.27068e-013	-4.85161e-013	-3.43208e-013	-3.948e-014	1.02568e-013	2.44662e-013	2.24959e-013	3.67116e-013	6.71066e-013	8.13319e-013	7.9367e-013	9.55617e-013	
FineR112	-2.04417e-012	-1.74099e-012	-1.76091e-012	-1.61934e-012	-1.47773e-012	-1.35608e-012	-1.05252e-012	-8.90915e-013	-7.6893e-013	-6.27068e-013	-3.2344e-013	-2.01268e-013	-3.948e-014	-5.922e-014	8.28465e-014	2.24959e-013	5.48544e-013	6.71066e-013	6.71066e-013	8.13319e-013	9.55617e-013	
FineR113	-1.88249e-012	-1.90243e-012	-1.76091e-012	-1.61934e-012	-1.31604e-012	-1.17438e-012	-1.05263e-012	-9.10842e-013	-5.87406e-013	-4.45558e-013	-3.2344e-013	-1.61725e-013	-3.9489e-014	1.22249e-013	2.64302e-013	3.86729e-013	5.28905e-013	5.09215e-013	8.32813e-013	9.75071e-013	1.11737e-012	
FineR114	-2.04411e-012	-1.90262e-012	-1.59938e-012	-1.4578e-012	-1.33606e-012	-1.19437e-012	-1.03277e-012	-7.29209e-013	-5.87406e-013	-4.45558e-013	-3.03664e-013	-1.6172e-013	-1.97582e-014	1.22249e-013	2.64302e-013	4.064e-013	5.68139e-013	6.70976e-013	8.52481e-013	9.75071e-013	1.137e-012	
FineR115	-1.88242e-012	-1.74092e-012	-1.59938e-012	-1.4578e-012	-1.15446e-012	-1.01278e-012	-8.71053e-013	-7.29282e-013	-4.25736e-013	-3.03669e-013	-3.03669e-013	-1.61738e-013	-1.97627e-014	2.84006e-013	4.26077e-013	5.68193e-013	5.48485e-013	6.90666e-013	8.32891e-013	1.13693e-012	1.27925e-012	
FineR116	-1.86245e-012	-1.74109e-012	-1.43782e-012	-1.29622e-012	-1.15457e-012	-1.01288e-012	-6.89479e-013	-7.49117e-013	-4.45599e-013	-4.45553e-013	-3.03669e-013	0	1.4198e-013	2.84006e-013	4.26077e-013	5.68193e-013	5.48485e-013	8.52427e-013	1.01433e-012	1.13693e-012	1.29889e-012	
FineR117	-1.86245e-012	-1.55928e-012	-1.43782e-012	-1.27618e-012	-1.13457e-012	-9.92747e-013	-8.51062e-013	-7.29186e-013	-4.25736e-013	-4.25736e-013	-1.41935e-013	1.9781e-014	1.61743e-013	2.84033e-013	4.26118e-013	5.87829e-013	7.1031e-013	8.72116e-013	9.94753e-013	9.75077e-013	1.2987e-012	
FineR118	-1.72089e-012	-1.74086e-012	-1.59933e-012	-1.13449e-012	-1.13439e-012	-1.01274e-012	-8.71021e-013	-7.29259e-013	-4.45549e-013	-2.83851e-013	-1.41948e-013	0	1.61743e-013	1.22227e-013	4.2605e-013	5.87829e-013	7.1031e-013	8.52509e-013	8.52427e-013	1.13686e-012	1.2987e-012	
FineR119	-1.70092e-012	-1.55943e-012	-1.41766e-012	-1.29603e-012	-1.13439e-012	-9.92747e-013	-7.09287e-013	-5.67521e-013	-4.25709e-013	-2.83851e-013	-1.41948e-013	1.61757e-013	3.23486e-013	2.83988e-013	4.45753e-013	5.68157e-013	7.30023e-013	1.01429e-012	1.01419e-012	1.13686e-012	1.31836e-012	
FineR120	-1.86236e-012	-1.55918e-012	-1.41766e-012	-1.2761e-012	-9.7277e-013	-8.31113e-013	-6.8941e-013	-5.47662e-013	-2.44107e-013	-1.22104e-013	1.98037e-014	1.61757e-013	1.41971e-013	3.03755e-013	6.07565e-013	7.29928e-013	8.91798e-013	1.03398e-012	1.01429e-012	1.15654e-012	1.46062e-012	
FineR121	-1.68066e-012	-1.55933e-012	-1.39771e-012	-1.11438e-012	-9.92779e-013	-8.31113e-013	-6.8941e-013	-5.47662e-013	-2.44126e-013	-1.02282e-013	1.98082e-014	0	3.23513e-013	4.65516e-013	6.07565e-013	7.49658e-013	7.29928e-013	1.03386e-012	1.17607e-012	1.338e-012	1.46062e-012	
FineR122	-1.68066e-012	-1.53921e-012	-1.25607e-012	-1.11438e-012	-9.7277e-013	-8.11218e-013	-5.27676e-013	-3.85924e-013	-2.44126e-013	-1.02282e-013	-1.22104e-013	1.81556e-013	3.23513e-013	4.65516e-013	6.07565e-013	9.11429e-013	8.91698e-013	1.03386e-012	1.19576e-012	1.338e-012	1.31832e-012	
FineR123	-1.5191e-012	-1.37763e-012	-1.236e-012	-1.11449e-012	-8.11118e-013	-8.31036e-013	-6.89342e-013	-5.27676e-013	-1.02227e-013	-1.02223e-013	1.98264e-014	1.81579e-013	3.2355e-013	4.85283e-013	7.69412e-013	7.49659e-013	9.11429e-013	1.03396e-012	1.35754e-012	1.48025e-012	1.46057e-012	
FineR124	-1.5191e-012	-1.3976e-012	-1.09433e-012	-9.52748e-013	-8.11118e-013	-8.31036e-013	-6.89342e-013	-5.47603e-013	-8.23826e-014	-1.02227e-013	3.96529e-014	3.43349e-013	4.85324e-013	6.27346e-013	7.69412e-013	7.49659e-013	8.91789e-013	1.19576e-012	1.33798e-012	1.33798e-012	1.48025e-012	
FineR125	-1.5191e-012	-1.2159e-012	-1.23587e-012	-9.32812e-013	-9.52748e-013	-8.11118e-013	-5.07695e-013	-3.6597e-013	-2.44062e-013	-8.23826e-014	2.01419e-013	3.43349e-013	4.85324e-013	4.65534e-013	6.07574e-013	9.11443e-013	1.05358e-012	1.19576e-012	1.35768e-012	1.33798e-012	1.48025e-012	
FineR126	-1.51881e-012	-1.37736e-012	-1.23587e-012	-1.09433e-012	-7.91009e-013	-6.49375e-013	-5.07695e-013	-3.85851e-013	-2.44062e-013	5.9534e-014	2.01419e-013	3.43349e-013	5.05114e-013	4.85324e-013	7.89125e-013	9.31196e-013	1.07331e-012	1.21547e-012	1.19576e-012	1.51948e-012	1.64223e-012	
FineR127	-1.51895e-012	-1.21575e-012	-1.05417e-012	-9.32598e-013	-7.91078e-013	-6.29458e-013	-3.26048e-013	-2.24113e-013	-6.24423e-014	5.95476e-014	2.21245e-013	5.24927e-013	5.05119e-013	6.47099e-013	7.89125e-013	9.31196e-013	1.07331e-012	1.37727e-012	1.35755e-012	1.49978e-012	1.64206e-012	
FineR128	-1.33708e-012	-1.21575e-012	-1.05417e-012	-9.12644e-013	-7.71074e-013	-4.67714e-013	-3.26048e-013	-2.04218e-013	-6.24423e-014	2.41176e-013	3.83011e-013	3.63184e-013	4.85366e-013	6.47099e-013	7.89125e-013	1.09298e-012	1.07323e-012	1.2351e-012	1.37727e-012	1.51948e-012	1.82354e-012	
FineR129	-1.35721e-012	-1.21575e-012	-1.07424e-012	-9.3268e-013	-6.29321e-013	-4.87668e-013	-3.26048e-013	-3.45948e-013	9.93144e-014	7.94515e-014	2.21295e-013	3.63184e-013	5.24927e-013	8.28664e-013	9.50904e-013	1.09298e-012	1.07323e-012	1.21537e-012	1.35755e-012	1.68128e-012	1.66158e-012	
FineR130	-1.33708e-012	-1.19565e-012	-1.05417e-012	-7.70928e-013	-6.09335e-013	-4.67714e-013	-4.87632e-013	-1.842e-013	7.94697e-014	7.94515e-014	2.21295e-013	3.63184e-013	6.66889e-013	8.28664e-013	9.50904e-013	9.31133e-013	1.09298e-012	1.21537e-012	1.53906e-012	1.66158e-012	1.64188e-012	
MinCout:	0	FineR:	116	FineC:	131

