	CoarseC0	CoarseC10	CoarseC20	CoarseC30	CoarseC40	CoarseC50	CoarseC60	CoarseC70	CoarseC80	CoarseC90	CoarseC100	CoarseC110	CoarseC120	CoarseC130	CoarseC140	CoarseC150	CoarseC160	CoarseC170	CoarseC180	CoarseC190	CoarseC200	CoarseC210	CoarseC220	CoarseC230	CoarseC240	CoarseC250	
CoarseR0	-1.11173e-009	-1.07239e-009	-1.02991e-009	-9.92586e-010	-9.60336e-010	-9.32464e-010	-9.0811e-010	-8.87571e-010	-8.69402e-010	-8.53319e-010	-8.39346e-010	-8.26726e-010	-8.15788e-010	-8.05979e-010	-7.97205e-010	-7.89348e-010	-7.82548e-010	-7.76519e-010	-7.70964e-010	-7.66064e-010	-7.61885e-010	-7.58048e-010	-7.54479e-010	-7.51712e-010	-7.49162e-010	-7.46726e-010	
CoarseR10	-8.31878e-010	-7.87579e-010	-7.48376e-010	-7.13635e-010	-6.83969e-010	-6.58002e-010	-6.35638e-010	-6.16106e-010	-5.98932e-010	-5.84021e-010	-5.70687e-010	-5.58792e-010	-5.48457e-010	-5.39276e-010	-5.30959e-010	-5.23696e-010	-5.17204e-010	-5.11621e-010	-5.0664e-010	-5.02576e-010	-4.99004e-010	-4.95883e-010	-4.93388e-010	-4.91191e-010	-4.89122e-010	-4.87695e-010	
CoarseR20	-6.56272e-010	-6.09516e-010	-5.72468e-010	-5.39564e-010	-5.1161e-010	-4.87272e-010	-4.65997e-010	-4.47623e-010	-4.31466e-010	-4.17096e-010	-4.04378e-010	-3.93243e-010	-3.83517e-010	-3.75313e-010	-3.67694e-010	-3.61308e-010	-3.55489e-010	-3.50777e-010	-3.463e-010	-3.42739e-010	-3.39619e-010	-3.37109e-010	-3.3506e-010	-3.33445e-010	-3.32075e-010	-3.31248e-010	
CoarseR30	-5.31438e-010	-4.86172e-010	-4.50046e-010	-4.18665e-010	-3.92013e-010	-3.68803e-010	-3.4873e-010	-3.31065e-010	-3.15855e-010	-3.0228e-010	-2.90665e-010	-2.80234e-010	-2.71299e-010	-2.63433e-010	-2.56435e-010	-2.50481e-010	-2.45415e-010	-2.41078e-010	-2.37353e-010	-2.34358e-010	-2.31616e-010	-2.29808e-010	-2.28272e-010	-2.27278e-010	-2.26673e-010	-2.26271e-010	
CoarseR40	-4.3953e-010	-3.95271e-010	-3.60111e-010	-3.30062e-010	-3.04265e-010	-2.8219e-010	-2.6279e-010	-2.4601e-010	-2.31559e-010	-2.18797e-010	-2.07574e-010	-1.97865e-010	-1.89471e-010	-1.82115e-010	-1.75798e-010	-1.70366e-010	-1.65652e-010	-1.62002e-010	-1.589e-010	-1.56366e-010	-1.54467e-010	-1.53293e-010	-1.5239e-010	-1.52241e-010	-1.5234e-010	-1.52921e-010	
CoarseR50	-3.68232e-010	-3.24542e-010	-2.90462e-010	-2.61287e-010	-2.36475e-010	-2.15057e-010	-1.96551e-010	-1.806e-010	-1.66644e-010	-1.54398e-010	-1.43967e-010	-1.34723e-010	-1.26625e-010	-1.19942e-010	-1.14264e-010	-1.09432e-010	-1.0553e-010	-1.02372e-010	-9.97445e-011	-9.78997e-011	-9.67585e-011	-9.62103e-011	-9.62573e-011	-9.69071e-011	-9.7941e-011	-9.97625e-011	
CoarseR60	-3.11526e-010	-2.67815e-010	-2.34734e-010	-2.06593e-010	-1.82663e-010	-1.61823e-010	-1.4398e-010	-1.28613e-010	-1.15294e-010	-1.03454e-010	-9.34542e-011	-8.48367e-011	-7.7548e-011	-7.12784e-011	-6.59009e-011	-6.17262e-011	-5.82786e-011	-5.58701e-011	-5.40612e-011	-5.28097e-011	-5.2498e-011	-5.29102e-011	-5.3904e-011	-5.53238e-011	-5.77845e-011	-6.06912e-011	
CoarseR70	-2.64213e-010	-2.21647e-010	-1.89317e-010	-1.6184e-010	-1.38603e-010	-1.18577e-010	-1.01278e-010	-8.63173e-011	-7.35511e-011	-6.22945e-011	-5.27232e-011	-4.46765e-011	-3.76707e-011	-3.1846e-011	-2.72442e-011	-2.33624e-011	-2.06975e-011	-1.8772e-011	-1.76163e-011	-1.75042e-011	-1.79738e-011	-1.91743e-011	-2.13081e-011	-2.43298e-011	-2.8395e-011	-3.41847e-011	
CoarseR80	-2.24686e-010	-1.82771e-010	-1.51403e-010	-1.24533e-010	-1.02073e-010	-8.23822e-011	-6.54733e-011	-5.10492e-011	-3.86866e-011	-2.78443e-011	-1.86837e-011	-1.09042e-011	-4.48793e-012	5.55395e-013	5.03394e-012	8.10058e-012	1.01279e-011	1.14081e-011	1.16144e-011	1.10822e-011	9.46512e-012	6.75114e-012	3.03298e-012	-2.63305e-012	-1.04061e-011	-1.80574e-011	
CoarseR90	-1.90449e-010	-1.4959e-010	-1.18681e-010	-9.25869e-011	-7.04419e-011	-5.12665e-011	-3.48908e-011	-2.06866e-011	-8.88351e-012	1.70167e-012	1.02714e-011	1.76247e-011	2.34343e-011	2.83523e-011	3.20245e-011	3.4461e-011	3.58191e-011	3.62613e-011	3.5822e-011	3.39217e-011	3.10031e-011	2.63826e-011	1.8708e-011	1.07423e-011	3.00023e-012	-4.70335e-012	
CoarseR100	-1.60581e-010	-1.20582e-010	-9.03204e-011	-6.47308e-011	-4.30582e-011	-2.42607e-011	-8.0767e-012	5.56124e-012	1.731e-011	2.71456e-011	3.56182e-011	4.25326e-011	4.80514e-011	5.21348e-011	5.53371e-011	5.71246e-011	5.78083e-011	5.72538e-011	5.54188e-011	5.2025e-011	4.643e-011	3.83557e-011	3.02853e-011	2.24453e-011	1.42161e-011	6.45727e-012	
CoarseR110	-1.34891e-010	-9.53832e-011	-6.57054e-011	-4.04219e-011	-1.89113e-011	-4.55643e-013	1.50318e-011	2.86111e-011	3.99677e-011	4.95392e-011	5.75766e-011	6.40228e-011	6.92357e-011	7.28599e-011	7.52242e-011	7.63083e-011	7.6149e-011	7.45404e-011	7.1219e-011	6.49054e-011	5.65129e-011	4.83448e-011	3.99624e-011	3.1826e-011	2.40045e-011	1.68572e-011	
CoarseR120	-1.11991e-010	-7.32178e-011	-4.38133e-011	-1.88132e-011	2.16478e-012	2.02439e-011	3.58731e-011	4.88786e-011	5.97919e-011	6.93079e-011	7.68847e-011	8.30392e-011	8.75865e-011	9.08933e-011	9.25686e-011	9.27863e-011	9.15706e-011	8.86347e-011	8.18277e-011	7.36781e-011	6.53954e-011	5.66302e-011	4.8227e-011	4.07035e-011	3.31888e-011	2.63642e-011	
CoarseR130	-9.18359e-011	-5.35162e-011	-2.44074e-011	1.07036e-013	2.10688e-011	3.89644e-011	5.42006e-011	6.7007e-011	7.76433e-011	8.67161e-011	9.41934e-011	9.98721e-011	1.03908e-010	1.06545e-010	1.07494e-010	1.0722e-010	1.04616e-010	9.8302e-011	9.00145e-011	8.18009e-011	7.27734e-011	6.41386e-011	5.64056e-011	4.90609e-011	4.18591e-011	3.55621e-011	
CoarseR140	-7.37119e-011	-3.5723e-011	-7.07679e-012	1.74178e-011	3.79246e-011	5.56067e-011	7.06305e-011	8.33349e-011	9.39209e-011	1.02688e-010	1.09514e-010	1.14859e-010	1.18575e-010	1.20675e-010	1.20943e-010	1.19229e-010	1.14225e-010	1.05927e-010	9.76127e-011	8.84824e-011	7.96085e-011	7.1476e-011	6.40876e-011	5.69044e-011	5.02566e-011	4.37922e-011	
CoarseR150	-5.75794e-011	-1.96044e-011	8.76018e-012	3.30824e-011	5.34151e-011	7.09162e-011	8.58478e-011	9.81428e-011	1.08629e-010	1.16925e-010	1.23783e-010	1.28655e-010	1.31834e-010	1.33235e-010	1.32605e-010	1.29542e-010	1.21217e-010	1.12944e-010	1.03874e-010	9.49139e-011	8.65532e-011	7.86105e-011	7.14194e-011	6.44027e-011	5.79837e-011	5.19488e-011	
CoarseR160	-4.26112e-011	-5.31084e-012	2.31149e-011	4.71292e-011	6.7266e-011	8.47299e-011	9.94543e-011	1.11659e-010	1.2185e-010	1.3004e-010	1.36407e-010	1.41084e-010	1.43593e-010	1.44456e-010	1.42755e-010	1.3616e-010	1.27873e-010	1.18799e-010	1.09778e-010	1.01182e-010	9.30232e-011	8.56532e-011	7.84773e-011	7.18807e-011	6.5691e-011	5.98955e-011	
CoarseR170	-2.90957e-011	8.1777e-012	3.62292e-011	6.01122e-011	8.03519e-011	9.75881e-011	1.12091e-010	1.24378e-010	1.34295e-010	1.42319e-010	1.48378e-010	1.52353e-010	1.54487e-010	1.54654e-010	1.50939e-010	1.42642e-010	1.33857e-010	1.24563e-010	1.15742e-010	1.07358e-010	9.95846e-011	9.24194e-011	8.54792e-011	7.89469e-011	7.30005e-011	6.70799e-011	
CoarseR180	-1.66028e-011	2.01911e-011	4.81665e-011	7.21869e-011	9.21034e-011	1.09297e-010	1.23883e-010	1.35893e-010	1.45696e-010	1.53585e-010	1.59134e-010	1.62931e-010	1.64528e-010	1.63425e-010	1.57025e-010	1.48554e-010	1.39404e-010	1.30133e-010	1.21513e-010	1.13544e-010	1.05989e-010	9.91046e-011	9.22085e-011	8.612e-011	8.00493e-011	7.45859e-011	
CoarseR190	-5.44647e-012	3.13908e-011	5.9368e-011	8.30838e-011	1.031e-010	1.20247e-010	1.34758e-010	1.46489e-010	1.56352e-010	1.63933e-010	1.69303e-010	1.72598e-010	1.73647e-010	1.71174e-010	1.62844e-010	1.5414e-010	1.44562e-010	1.3587e-010	1.27268e-010	1.19539e-010	1.12263e-010	1.05383e-010	9.87633e-011	9.27627e-011	8.69833e-011	8.16e-011	
CoarseR200	4.83889e-012	4.16191e-011	6.95864e-011	9.31283e-011	1.13133e-010	1.30408e-010	1.44663e-010	1.56497e-010	1.66063e-010	1.73495e-010	1.78715e-010	1.81439e-010	1.81594e-010	1.76694e-010	1.68439e-010	1.58969e-010	1.49786e-010	1.41334e-010	1.32999e-010	1.25696e-010	1.18481e-010	1.11675e-010	1.05158e-010	9.94299e-011	9.3767e-011	8.85059e-011	
CoarseR210	1.4366e-011	5.10692e-011	7.88867e-011	1.02618e-010	1.22591e-010	1.39622e-010	1.53966e-010	1.65686e-010	1.75128e-010	1.82204e-010	1.87263e-010	1.8949e-010	1.89317e-010	1.82153e-010	1.73747e-010	1.64253e-010	1.55135e-010	1.4653e-010	1.38818e-010	1.31427e-010	1.24441e-010	1.17786e-010	1.11513e-010	1.05711e-010	1.0016e-010	9.5002e-011	
CoarseR220	2.29238e-011	5.98753e-011	8.75748e-011	1.11255e-010	1.31209e-010	1.48142e-010	1.62421e-010	1.74214e-010	1.83531e-010	1.90688e-010	1.95226e-010	1.97469e-010	1.95566e-010	1.87468e-010	1.78706e-010	1.69044e-010	1.60202e-010	1.52029e-010	1.44217e-010	1.36883e-010	1.30036e-010	1.23641e-010	1.17681e-010	1.1201e-010	1.0656e-010	1.01539e-010	
CoarseR230	3.10599e-011	6.77705e-011	9.54134e-011	1.19334e-010	1.39364e-010	1.56454e-010	1.70603e-010	1.82279e-010	1.91497e-010	1.98525e-010	2.02869e-010	2.04427e-010	2.00746e-010	1.92692e-010	1.83331e-010	1.74354e-010	1.65356e-010	1.5729e-010	1.49738e-010	1.42495e-010	1.35925e-010	1.29462e-010	1.23648e-010	1.18063e-010	1.12722e-010	1.07865e-010	
CoarseR240	3.84315e-011	7.50843e-011	1.0299e-010	1.26826e-010	1.46641e-010	1.63869e-010	1.78318e-010	1.89693e-010	1.98974e-010	2.05649e-010	2.09704e-010	2.1106e-010	2.05775e-010	1.97853e-010	1.88256e-010	1.79109e-010	1.70399e-010	1.62631e-010	1.55156e-010	1.48032e-010	1.41605e-010	1.35433e-010	1.29513e-010	1.23894e-010	1.18893e-010	1.14136e-010	
CoarseR250	4.51633e-011	8.19331e-011	1.09815e-010	1.33616e-010	1.53632e-010	1.70753e-010	1.85107e-010	1.96762e-010	2.0593e-010	2.12464e-010	2.16365e-010	2.17221e-010	2.10705e-010	2.02507e-010	1.93036e-010	1.83998e-010	1.75742e-010	1.67844e-010	1.60504e-010	1.53665e-010	1.47164e-010	1.41148e-010	1.35179e-010	1.29831e-010	1.24788e-010	1.19978e-010	
MinCout:	1.07036e-013	CoarseR:	130	CoarseC:	30

	CoarseC40	CoarseC41	CoarseC42	CoarseC43	CoarseC44	CoarseC45	CoarseC46	CoarseC47	CoarseC48	CoarseC49	CoarseC50	CoarseC51	CoarseC52	CoarseC53	CoarseC54	CoarseC55	CoarseC56	CoarseC57	CoarseC58	CoarseC59	CoarseC60	
CoarseR100	-4.29158e-011	-4.09315e-011	-3.87506e-011	-3.69328e-011	-3.50854e-011	-3.32363e-011	-3.12695e-011	-2.96102e-011	-2.76119e-011	-2.59258e-011	-2.4117e-011	-2.24497e-011	-2.08028e-011	-1.91093e-011	-1.74362e-011	-1.59296e-011	-1.42528e-011	-1.27646e-011	-1.1084e-011	-9.59058e-012	-8.07532e-012	
CoarseR101	-4.03712e-011	-3.82205e-011	-3.60404e-011	-3.42229e-011	-3.24038e-011	-3.07213e-011	-2.87547e-011	-2.69257e-011	-2.49308e-011	-2.34092e-011	-2.17447e-011	-1.99341e-011	-1.80975e-011	-1.65724e-011	-1.49222e-011	-1.32477e-011	-1.17399e-011	-1.0085e-011	-8.42619e-012	-7.05809e-012	-5.58732e-012	
CoarseR102	-3.78564e-011	-3.58732e-011	-3.37217e-011	-3.18762e-011	-3.00568e-011	-2.82358e-011	-2.6409e-011	-2.45571e-011	-2.2753e-011	-2.10648e-011	-1.92336e-011	-1.75696e-011	-1.58993e-011	-1.42291e-011	-1.2557e-011	-1.10754e-011	-9.39921e-012	-7.72111e-012	-6.23211e-012	-4.71962e-012	-3.22513e-012	
CoarseR103	-3.54955e-011	-3.3488e-011	-3.11939e-011	-2.95197e-011	-2.76729e-011	-2.58517e-011	-2.38588e-011	-2.21748e-011	-2.0204e-011	-1.85421e-011	-1.68782e-011	-1.50448e-011	-1.33769e-011	-1.18753e-011	-1.02036e-011	-8.5299e-012	-7.02314e-012	-5.34573e-012	-3.71102e-012	-2.36601e-012	-8.74311e-013	
CoarseR104	-3.29817e-011	-3.0946e-011	-2.89895e-011	-2.71447e-011	-2.5159e-011	-2.34787e-011	-2.14862e-011	-1.9661e-011	-1.80253e-011	-1.61705e-011	-1.45072e-011	-1.28419e-011	-1.10069e-011	-9.50524e-012	-7.66622e-012	-6.13912e-012	-4.48732e-012	-3.00156e-012	-1.32241e-012	2.15453e-014	1.68246e-012	
CoarseR105	-3.05683e-011	-2.8584e-011	-2.64337e-011	-2.45892e-011	-2.27704e-011	-2.1091e-011	-1.91012e-011	-1.74424e-011	-1.54481e-011	-1.35954e-011	-1.1956e-011	-1.0291e-011	-8.62284e-012	-7.12329e-012	-5.47527e-012	-3.78032e-012	-2.27362e-012	-5.96928e-013	8.89985e-013	2.54848e-012	3.9156e-012	
CoarseR106	-2.81635e-011	-2.61822e-011	-2.40324e-011	-2.21883e-011	-2.03696e-011	-1.85223e-011	-1.65569e-011	-1.48747e-011	-1.29044e-011	-1.13878e-011	-9.72542e-012	-7.89259e-012	-6.24951e-012	-4.72623e-012	-2.91025e-012	-1.38363e-012	9.86793e-014	1.79766e-012	3.43106e-012	4.77359e-012	6.3082e-012	
CoarseR107	-2.57731e-011	-2.37668e-011	-2.16174e-011	-1.98007e-011	-1.798e-011	-1.61346e-011	-1.41432e-011	-1.25116e-011	-1.06593e-011	-8.99931e-012	-7.33727e-012	-5.50441e-012	-3.83826e-012	-2.3387e-012	-6.68669e-013	8.34373e-013	2.33905e-012	3.99231e-012	5.64767e-012	7.0119e-012	8.50216e-012	
CoarseR108	-2.33669e-011	-2.13886e-011	-1.94058e-011	-1.75623e-011	-1.55506e-011	-1.38994e-011	-1.20758e-011	-1.02514e-011	-8.25719e-012	-6.57282e-012	-5.1035e-012	-3.41624e-012	-1.60554e-012	-8.31373e-014	1.56269e-012	3.21124e-012	4.73882e-012	6.41426e-012	7.89922e-012	9.21813e-012	1.08997e-011	
CoarseR109	-2.11454e-011	-1.91651e-011	-1.7013e-011	-1.53409e-011	-1.3496e-011	-1.16497e-011	-9.85466e-012	-8.03013e-012	-6.20299e-012	-4.54393e-012	-2.71333e-012	-1.05008e-012	6.15249e-013	2.11386e-012	3.78313e-012	5.28527e-012	6.95842e-012	8.46405e-012	1.01192e-011	1.16286e-011	1.29704e-011	
CoarseR110	-1.90498e-011	-1.70703e-011	-1.4752e-011	-1.29358e-011	-1.12611e-011	-9.44095e-012	-7.45063e-012	-5.77083e-012	-3.94461e-012	-2.11629e-012	-6.23884e-013	1.03866e-012	2.849e-012	4.2012e-012	6.01574e-012	7.54089e-012	9.04377e-012	1.05267e-011	1.21803e-011	1.37121e-011	1.52013e-011	
CoarseR111	-1.66577e-011	-1.46524e-011	-1.26969e-011	-1.08552e-011	-9.01109e-012	-7.33614e-012	-5.37169e-012	-3.54754e-012	-1.69876e-012	-3.86084e-014	1.62147e-012	3.45372e-012	5.09382e-012	6.61546e-012	8.25984e-012	9.78475e-012	1.12875e-011	1.29615e-011	1.44228e-011	1.57612e-011	1.72502e-011	
CoarseR112	-1.45944e-011	-1.25851e-011	-1.04374e-011	-8.59523e-012	-6.77753e-012	-5.10254e-012	-3.11326e-012	-1.26429e-012	3.66145e-013	2.19429e-012	3.68574e-012	5.37113e-012	7.18068e-012	8.70173e-012	1.03693e-011	1.18472e-011	1.33495e-011	1.50232e-011	1.6699e-011	1.80153e-011	1.95249e-011	
CoarseR113	-1.23178e-011	-1.03131e-011	-8.3326e-012	-6.49091e-012	-4.4805e-012	-2.99936e-012	-1.0107e-012	8.1286e-013	2.63856e-012	4.31977e-012	5.95492e-012	7.6418e-012	9.44913e-012	1.08008e-011	1.24453e-011	1.41148e-011	1.56166e-011	1.71202e-011	1.87742e-011	2.02815e-011	2.16201e-011	
CoarseR114	-1.00333e-011	-8.05532e-012	-6.04874e-012	-4.20737e-012	-2.39019e-012	-5.45453e-013	1.25009e-012	2.92721e-012	4.92073e-012	6.40906e-012	8.26239e-012	9.92284e-012	1.15607e-011	1.30811e-011	1.48963e-011	1.63958e-011	1.77261e-011	1.9399e-011	2.08826e-011	2.23894e-011	2.38979e-011	
CoarseR115	-8.10115e-012	-6.09717e-012	-3.94623e-012	-2.13135e-012	-1.21245e-013	1.41015e-012	3.37277e-012	5.17034e-012	6.84872e-012	8.70148e-012	1.01657e-011	1.18259e-011	1.36595e-011	1.51795e-011	1.68212e-011	1.83445e-011	1.98449e-011	2.14716e-011	2.29761e-011	2.43112e-011	2.57986e-011	
CoarseR116	-5.79271e-012	-3.8158e-012	-1.83666e-012	4.01677e-015	1.82077e-012	3.46797e-012	5.48571e-012	7.16145e-012	8.96065e-012	1.06162e-011	1.2274e-011	1.39366e-011	1.56213e-011	1.71181e-011	1.87592e-011	2.02822e-011	2.17822e-011	2.3454e-011	2.49125e-011	2.64182e-011	2.79257e-011	
CoarseR117	-3.8657e-012	-1.88902e-012	8.8827e-014	1.92993e-012	3.74643e-012	5.4181e-012	7.40669e-012	9.25404e-012	1.10789e-011	1.25655e-011	1.42459e-011	1.60514e-011	1.77127e-011	1.92319e-011	2.07026e-011	2.22002e-011	2.37027e-011	2.53496e-011	2.68529e-011	2.8508e-011	2.98443e-011	
CoarseR118	-1.7607e-012	7.55321e-014	2.39314e-012	4.06565e-012	5.8769e-012	7.57905e-012	9.54072e-012	1.13634e-011	1.30397e-011	1.48665e-011	1.63542e-011	1.81851e-011	1.98205e-011	2.13395e-011	2.28347e-011	2.43318e-011	2.60007e-011	2.74804e-011	2.89831e-011	3.04876e-011	3.19737e-011	
CoarseR119	1.86835e-013	2.18949e-012	4.16692e-012	6.00785e-012	7.84897e-012	9.66687e-012	1.13122e-011	1.31345e-011	1.49589e-011	1.66364e-011	1.8296e-011	1.9954e-011	2.17867e-011	2.32795e-011	2.49438e-011	2.64404e-011	2.79637e-011	2.94178e-011	3.10905e-011	3.22514e-011	3.3737e-011	
CoarseR120	2.13828e-012	4.14656e-012	6.29058e-012	7.93662e-012	9.77732e-012	1.14488e-011	1.341e-011	1.52563e-011	1.69077e-011	1.85653e-011	2.02439e-011	2.1905e-011	2.35645e-011	2.50823e-011	2.68931e-011	2.83676e-011	2.98907e-011	3.11925e-011	3.28646e-011	3.43725e-011	3.58778e-011	
MinCout:	4.01677e-015	CoarseR:	116	CoarseC:	43

	FineC0	FineC10	FineC20	FineC30	FineC40	FineC50	FineC60	FineC70	FineC80	FineC90	FineC100	FineC110	FineC120	FineC130	FineC140	FineC150	FineC160	FineC170	FineC180	FineC190	FineC200	FineC210	FineC220	FineC230	FineC240	FineC250	
FineR0	-1.36564e-010	-1.1058e-010	-9.41524e-011	-8.22586e-011	-7.31857e-011	-6.60748e-011	-6.0151e-011	-5.52974e-011	-5.13491e-011	-4.78665e-011	-4.49726e-011	-4.22159e-011	-4.02681e-011	-3.81294e-011	-3.64666e-011	-3.4924e-011	-3.34073e-011	-3.21776e-011	-3.1115e-011	-3.02007e-011	-2.93084e-011	-2.83722e-011	-2.74349e-011	-2.68543e-011	-2.62588e-011	-2.56349e-011	
FineR10	-1.19659e-010	-9.38621e-011	-7.77051e-011	-6.57174e-011	-5.67575e-011	-4.96476e-011	-4.37367e-011	-3.90489e-011	-3.49395e-011	-3.14388e-011	-2.85707e-011	-2.61291e-011	-2.3853e-011	-2.18824e-011	-2.02225e-011	-1.87065e-011	-1.73355e-011	-1.61081e-011	-1.50481e-011	-1.40118e-011	-1.30946e-011	-1.23289e-011	-1.14141e-011	-1.06264e-011	-1.01971e-011	-9.40805e-012	
FineR20	-1.12214e-010	-8.65507e-011	-7.04005e-011	-5.85585e-011	-4.94691e-011	-4.23456e-011	-3.64328e-011	-3.17504e-011	-2.78113e-011	-2.43134e-011	-2.14491e-011	-1.90104e-011	-1.6758e-011	-1.47658e-011	-1.311e-011	-1.15957e-011	-1.02261e-011	-9.0214e-012	-7.77419e-012	-6.86284e-012	-5.97219e-012	-5.05808e-012	-4.27155e-012	-3.69424e-012	-2.90615e-012	-2.45587e-012	
FineR30	-1.08213e-010	-8.24067e-011	-6.60614e-011	-5.42259e-011	-4.53057e-011	-3.82117e-011	-3.22499e-011	-2.75994e-011	-2.34956e-011	-2.01902e-011	-1.7305e-011	-1.48913e-011	-1.26172e-011	-1.06277e-011	-8.97173e-012	-7.45888e-012	-5.92094e-012	-4.86567e-012	-3.80855e-012	-2.58216e-012	-1.67015e-012	-1.07406e-012	-1.38628e-013	6.06009e-013	1.05501e-012	1.84343e-012	
FineR40	-1.05338e-010	-7.95749e-011	-6.34027e-011	-5.15716e-011	-4.24876e-011	-3.55066e-011	-2.96018e-011	-2.49269e-011	-2.08257e-011	-1.75228e-011	-1.46397e-011	-1.20597e-011	-9.95525e-012	-7.96715e-012	-6.31249e-012	-4.80076e-012	-3.26368e-012	-2.20936e-012	-9.84967e-013	9.47195e-014	9.84149e-013	1.74777e-012	2.51439e-012	3.08794e-012	3.85437e-012	4.47425e-012	
FineR50	-1.03447e-010	-7.78183e-011	-6.16471e-011	-4.98222e-011	-4.0743e-011	-3.36265e-011	-2.76988e-011	-2.30244e-011	-1.90953e-011	-1.57686e-011	-1.29108e-011	-1.03335e-011	-8.22905e-012	-6.09675e-012	-4.61161e-012	-2.93217e-012	-1.5413e-012	-3.41629e-013	7.14065e-013	1.79341e-012	2.7258e-012	3.61628e-012	4.38059e-012	5.16717e-012	5.59411e-012	6.36125e-012	
FineR60	-1.02105e-010	-7.64719e-011	-6.03393e-011	-4.83151e-011	-3.94056e-011	-3.20976e-011	-2.65301e-011	-2.1667e-011	-1.75931e-011	-1.42693e-011	-1.13888e-011	-8.97936e-012	-6.70871e-012	-4.74582e-012	-3.09203e-012	-1.55914e-012	-2.15194e-013	1.17625e-012	2.2315e-012	3.14038e-012	4.05057e-012	4.96243e-012	5.72636e-012	6.49113e-012	7.06712e-012	7.70562e-012	
FineR70	-1.00927e-010	-7.51442e-011	-5.91769e-011	-4.73294e-011	-3.82546e-011	-3.11387e-011	-2.52143e-011	-2.0379e-011	-1.66161e-011	-1.32918e-011	-1.02442e-011	-7.86011e-012	-5.56589e-012	-3.60332e-012	-1.92841e-012	-2.49193e-013	1.11708e-012	2.16982e-012	3.39305e-012	4.4499e-012	5.35995e-012	6.12267e-012	7.03568e-012	7.63157e-012	8.24783e-012	8.86668e-012	
FineR80	-1.00125e-010	-7.43088e-011	-5.81861e-011	-4.63367e-011	-3.72652e-011	-3.0323e-011	-2.44254e-011	-1.95641e-011	-1.56346e-011	-1.21695e-011	-9.45805e-012	-6.88191e-012	-4.61219e-012	-2.62669e-012	-8.05965e-013	5.35102e-013	1.90098e-012	3.09966e-012	4.17625e-012	5.23237e-012	6.14256e-012	6.88311e-012	7.81786e-012	8.58232e-012	9.02955e-012	9.79639e-012	
FineR90	-9.93445e-011	-7.35703e-011	-5.74756e-011	-4.55972e-011	-3.64952e-011	-2.93861e-011	-2.36826e-011	-1.89612e-011	-1.48924e-011	-1.15457e-011	-8.52321e-012	-6.1169e-012	-3.84699e-012	-2.05422e-012	-2.33854e-013	1.27547e-012	2.47237e-012	3.86298e-012	4.91712e-012	5.82513e-012	6.90329e-012	7.64579e-012	8.40908e-012	9.17321e-012	9.95995e-012	1.03868e-011	
FineR100	-9.87859e-011	-7.30136e-011	-5.68571e-011	-4.50153e-011	-3.60788e-011	-2.88071e-011	-2.29366e-011	-1.82427e-011	-1.43161e-011	-1.097e-011	-7.94813e-012	-5.37374e-012	-3.24955e-012	-1.48046e-012	3.39599e-013	1.87122e-012	3.21399e-012	4.43564e-012	5.65836e-012	6.56621e-012	7.47535e-012	8.38662e-012	8.98083e-012	9.76672e-012	1.05107e-011	1.09581e-011	
FineR110	-9.82044e-011	-7.24645e-011	-5.62789e-011	-4.44282e-011	-3.53606e-011	-2.84185e-011	-2.2524e-011	-1.76652e-011	-1.3932e-011	-1.04179e-011	-7.56474e-012	-4.96649e-012	-2.88999e-012	-9.05939e-013	7.4491e-013	2.25343e-012	3.78798e-012	5.00844e-012	6.06198e-012	6.94788e-012	7.8569e-012	8.78934e-012	9.53117e-012	1.02951e-011	1.09127e-011	1.15083e-011	
FineR120	-9.78352e-011	-7.20294e-011	-5.59133e-011	-4.40733e-011	-3.51384e-011	-2.78388e-011	-2.19729e-011	-1.73051e-011	-1.33792e-011	-1.00338e-011	-7.01236e-012	-4.58242e-012	-2.31452e-012	-3.54037e-013	1.31975e-012	2.82802e-012	4.17007e-012	5.39124e-012	6.42174e-012	7.49944e-012	8.4084e-012	9.17031e-012	1.00826e-011	1.06994e-011	1.12724e-011	1.20597e-011	
FineR130	-9.74863e-011	-7.16776e-011	-5.55251e-011	-4.36488e-011	-3.45838e-011	-2.74789e-011	-2.17509e-011	-1.69201e-011	-1.31615e-011	-9.50506e-012	-6.79604e-012	-4.19849e-012	-2.12272e-012	6.37838e-015	1.68017e-012	3.01908e-012	4.53097e-012	5.77338e-012	6.80473e-012	7.88235e-012	8.62086e-012	9.55307e-012	1.02947e-011	1.12292e-011	1.1655e-011	1.22713e-011	
FineR140	-9.7252e-011	-7.12805e-011	-5.51655e-011	-4.3489e-011	-3.42238e-011	-2.70928e-011	-2.13907e-011	-1.65332e-011	-1.27752e-011	-9.48058e-012	-6.43558e-012	-3.83795e-012	-1.73873e-012	2.21313e-013	1.87163e-012	3.3797e-012	4.76704e-012	6.13409e-012	7.20976e-012	8.07289e-012	9.00394e-012	9.91388e-012	1.06555e-011	1.14192e-011	1.20366e-011	1.26322e-011	
FineR150	-9.68927e-011	-7.10887e-011	-5.49736e-011	-4.31246e-011	-3.40015e-011	-2.70916e-011	-2.11986e-011	-1.63411e-011	-1.24147e-011	-9.07056e-012	-6.21897e-012	-3.62185e-012	-1.37782e-012	4.13291e-013	2.23242e-012	3.74051e-012	5.12739e-012	6.32605e-012	7.54817e-012	8.45541e-012	9.36396e-012	1.02749e-011	1.10376e-011	1.16332e-011	1.24184e-011	1.28447e-011	
FineR160	-9.66581e-011	-7.07594e-011	-5.45791e-011	-4.29004e-011	-3.38361e-011	-2.67023e-011	-2.08105e-011	-1.59788e-011	-1.21966e-011	-8.71009e-012	-5.85756e-012	-3.28468e-012	-1.16205e-012	7.9744e-013	2.4474e-012	3.95516e-012	5.31949e-012	6.68643e-012	7.76203e-012	8.64659e-012	9.55503e-012	1.04659e-011	1.12285e-011	1.19932e-011	1.25885e-011	1.32046e-011	
FineR170	-9.63326e-011	-7.05225e-011	-5.44103e-011	-4.27037e-011	-3.36403e-011	-2.65334e-011	-2.0616e-011	-1.57849e-011	-1.18362e-011	-8.70946e-012	-5.66526e-012	-3.09207e-012	-9.69677e-013	9.89604e-013	2.63936e-012	4.14696e-012	5.51113e-012	6.87793e-012	7.95342e-012	8.86034e-012	9.91759e-012	1.06569e-011	1.14195e-011	1.21842e-011	1.27793e-011	1.34174e-011	
FineR180	-9.61309e-011	-7.05286e-011	-5.43804e-011	-4.2507e-011	-3.34445e-011	-2.61473e-011	-2.04215e-011	-1.55908e-011	-1.16672e-011	-8.34879e-012	-5.47175e-012	-2.89938e-012	-7.77223e-013	1.35073e-012	3.00058e-012	4.50825e-012	5.87251e-012	7.06951e-012	8.12227e-012	9.19941e-012	1.01088e-011	1.08481e-011	1.16105e-011	1.23752e-011	1.29923e-011	1.35862e-011	
FineR190	-9.59291e-011	-7.01319e-011	-5.41825e-011	-4.21752e-011	-3.30813e-011	-2.61465e-011	-2.02551e-011	-1.55652e-011	-1.14735e-011	-8.17979e-012	-5.27958e-012	-2.89915e-012	-4.39687e-013	1.5197e-012	3.16952e-012	4.67719e-012	6.04143e-012	7.09215e-012	8.3138e-012	9.39082e-012	1.02991e-011	1.10393e-011	1.19724e-011	1.23957e-011	1.31612e-011	1.37771e-011	
FineR200	-9.59281e-011	-6.9963e-011	-5.3852e-011	-4.21742e-011	-3.28854e-011	-2.59774e-011	-2.00861e-011	-1.52298e-011	-1.1473e-011	-7.98639e-012	-5.11055e-012	-2.53809e-012	-4.15913e-013	1.5432e-012	3.3617e-012	4.86919e-012	6.08654e-012	7.45295e-012	8.48375e-012	9.55977e-012	1.0468e-011	1.12308e-011	1.19721e-011	1.27576e-011	1.33508e-011	1.39479e-011	
FineR210	-9.56024e-011	-6.98022e-011	-5.3851e-011	-4.19773e-011	-3.28844e-011	-2.57533e-011	-1.98914e-011	-1.50355e-011	-1.12792e-011	-7.96079e-012	-4.94149e-012	-2.34499e-012	-2.46863e-013	1.73543e-012	3.38465e-012	4.89177e-012	6.25554e-012	7.45291e-012	8.69713e-012	9.5822e-012	1.04903e-011	1.14221e-011	1.21634e-011	1.29266e-011	1.35436e-011	1.41389e-011	
FineR220	-9.55585e-011	-6.98011e-011	-5.34571e-011	-4.17814e-011	-3.25513e-011	-2.55876e-011	-1.96973e-011	-1.50083e-011	-1.10859e-011	-7.59912e-012	-4.91702e-012	-2.34467e-012	-5.44339e-014	1.90453e-012	3.72289e-012	5.23025e-012	6.42523e-012	7.62191e-012	8.69708e-012	9.943e-012	1.08298e-011	1.15912e-011	1.21842e-011	1.29264e-011	1.37126e-011	1.41592e-011	
FineR230	-9.54004e-011	-6.95944e-011	-5.34559e-011	-4.17803e-011	-3.25201e-011	-2.55841e-011	-1.9669e-011	-1.48664e-011	-1.09167e-011	-7.59862e-012	-4.72418e-012	-2.15205e-012	1.14684e-013	1.9045e-012	3.74587e-012	5.25286e-012	6.59358e-012	7.81377e-012	9.05794e-012	9.94188e-012	1.0851e-011	1.17603e-011	1.25226e-011	1.30956e-011	1.37331e-011	1.44978e-011	
FineR240	-9.53565e-011	-6.95861e-011	-5.34493e-011	-4.15791e-011	-3.25192e-011	-2.54184e-011	-1.96938e-011	-1.48391e-011	-1.07481e-011	-7.40555e-012	-4.55459e-012	-1.95887e-012	1.14927e-013	2.24253e-012	3.72277e-012	5.2524e-012	6.61588e-012	8.00482e-012	9.03522e-012	9.94182e-012	1.08497e-011	1.17814e-011	1.25224e-011	1.32855e-011	1.38817e-011	1.44975e-011	
FineR250	-9.51888e-011	-6.93877e-011	-5.32523e-011	-4.1411e-011	-3.23509e-011	-2.53887e-011	-1.94997e-011	-1.46454e-011	-1.07217e-011	-7.42944e-012	-4.38628e-012	-1.95847e-012	3.07409e-013	2.26594e-012	3.91499e-012	5.42197e-012	6.78562e-012	8.00487e-012	9.05697e-012	1.0112e-011	1.10201e-011	1.19518e-011	1.26917e-011	1.3477e-011	1.39022e-011	1.4689e-011	
MinCout:	6.37838e-015	FineR:	130	FineC:	130

	FineC120	FineC121	FineC122	FineC123	FineC124	FineC125	FineC126	FineC127	FineC128	FineC129	FineC130	FineC131	FineC132	FineC133	FineC134	FineC135	FineC136	FineC137	FineC138	FineC139	FineC140	
FineR140	-1.73873e-012	-1.57016e-012	-1.47196e-012	-1.13441e-012	-9.65741e-013	-8.43852e-013	-5.29594e-013	-3.84135e-013	-6.97989e-014	2.44571e-013	2.44571e-013	3.66992e-013	5.35916e-013	8.5046e-013	9.96265e-013	1.14212e-012	1.28803e-012	1.43398e-012	1.74881e-012	1.89487e-012	1.89487e-012	
FineR141	-1.73892e-012	-1.59376e-012	-1.2798e-012	-1.13453e-012	-9.89219e-013	-6.51658e-013	-5.29659e-013	-3.6083e-013	7.57053e-014	9.89741e-014	2.44571e-013	3.90218e-013	7.04706e-013	8.5046e-013	9.96265e-013	1.14212e-012	1.28803e-012	1.6028e-012	1.74881e-012	1.74881e-012	1.89487e-012	
FineR142	-1.73892e-012	-1.42501e-012	-1.25625e-012	-1.11102e-012	-9.65741e-013	-6.51658e-013	-5.06269e-013	-1.92068e-013	9.89772e-014	9.89741e-014	2.44571e-013	5.35821e-013	7.04706e-013	8.5046e-013	9.96265e-013	1.31105e-012	1.47997e-012	1.45684e-012	1.57984e-012	1.91763e-012	2.0637e-012	
FineR143	-1.57018e-012	-1.40158e-012	-1.25639e-012	-9.65775e-013	-8.20454e-013	-6.51731e-013	-3.60883e-013	-2.15404e-013	-6.98748e-014	7.57053e-014	3.90134e-013	5.59002e-013	6.81559e-013	8.27347e-013	1.16518e-012	1.33407e-012	1.47997e-012	1.62591e-012	1.77162e-012	1.91763e-012	2.0637e-012	
FineR144	-1.54673e-012	-1.40158e-012	-1.08764e-012	-9.42385e-013	-7.97083e-013	-6.75082e-013	-3.60883e-013	-2.15404e-013	-6.98748e-014	2.44498e-013	3.90134e-013	5.35821e-013	7.04771e-013	9.96162e-013	1.18823e-012	1.33407e-012	1.31093e-012	1.62565e-012	1.77162e-012	1.91763e-012	2.0637e-012	
FineR145	-1.54673e-012	-1.23284e-012	-1.08764e-012	-9.42385e-013	-7.97083e-013	-4.82961e-013	-3.37552e-013	-1.92093e-013	1.22204e-013	2.6777e-013	3.90134e-013	5.59054e-013	8.73496e-013	1.04244e-012	1.18823e-012	1.16507e-012	1.45673e-012	1.60268e-012	1.79472e-012	1.91783e-012	2.23276e-012	
FineR146	-1.37799e-012	-1.23284e-012	-1.08764e-012	-7.73626e-013	-6.28318e-013	-5.06371e-013	-3.37552e-013	-4.66338e-014	1.22204e-013	2.6777e-013	5.82185e-013	7.27858e-013	8.73581e-013	8.50368e-013	1.35717e-012	1.334e-012	1.47988e-012	1.62581e-012	1.77179e-012	2.08667e-012	2.23276e-012	
FineR147	-1.54672e-012	-1.40159e-012	-1.11117e-012	-7.97104e-013	-6.28318e-013	-4.82961e-013	-1.68776e-013	0	1.22204e-013	2.6777e-013	4.13291e-013	7.27858e-013	8.73581e-013	8.50368e-013	1.18817e-012	1.334e-012	1.45673e-012	1.62581e-012	1.96354e-012	2.08667e-012	2.23276e-012	
FineR148	-1.54655e-012	-1.40144e-012	-1.08752e-012	-7.73626e-013	-6.28318e-013	-3.1419e-013	-3.37541e-013	-2.33114e-014	1.22204e-013	4.36563e-013	4.13291e-013	7.27858e-013	8.73581e-013	1.01918e-012	1.16498e-012	1.31083e-012	1.62555e-012	1.79464e-012	1.94063e-012	2.08667e-012	2.06357e-012	
FineR149	-1.52308e-012	-1.20924e-012	-1.06409e-012	-9.42292e-013	-6.28257e-013	-4.82924e-013	-3.37541e-013	-1.92107e-013	2.90991e-013	2.677e-013	5.82185e-013	5.82185e-013	8.96661e-013	1.04239e-012	1.18817e-012	1.334e-012	1.64871e-012	1.79464e-012	1.94063e-012	2.08667e-012	2.25551e-012	
FineR150	-1.35435e-012	-1.20924e-012	-1.08763e-012	-9.18882e-013	-6.04866e-013	-4.59554e-013	-3.1419e-013	0	1.4547e-013	2.677e-013	5.82084e-013	7.50983e-013	8.96661e-013	1.04239e-012	1.18817e-012	1.50282e-012	1.64871e-012	1.79464e-012	1.79464e-012	2.10947e-012	2.25551e-012	
FineR151	-1.37796e-012	-1.23282e-012	-8.9534e-013	-7.50128e-013	-6.04866e-013	-4.59554e-013	-1.4542e-013	0	1.4547e-013	2.677e-013	6.05355e-013	7.50983e-013	8.96661e-013	1.2112e-012	1.35698e-012	1.50282e-012	1.64871e-012	1.98661e-012	1.96347e-012	2.10947e-012	2.25551e-012	
FineR152	-1.37796e-012	-1.06406e-012	-8.9534e-013	-7.50128e-013	-6.04866e-013	-2.90789e-013	-1.4542e-013	0	3.14252e-013	4.36487e-013	6.05355e-013	7.50983e-013	8.96661e-013	1.2112e-012	1.35698e-012	1.50282e-012	1.64871e-012	1.81753e-012	1.94034e-012	2.10947e-012	2.25551e-012	
FineR153	-1.37796e-012	-1.0405e-012	-8.9534e-013	-7.50128e-013	-6.28324e-013	-2.90789e-013	-1.4542e-013	0	3.14252e-013	4.59778e-013	6.05355e-013	7.50983e-013	1.06547e-012	1.2112e-012	1.38018e-012	1.33379e-012	1.67164e-012	1.81753e-012	1.96347e-012	2.10947e-012	2.44745e-012	
FineR154	-1.18573e-012	-1.04061e-012	-8.9543e-013	-7.50205e-013	-4.36149e-013	-2.90817e-013	-1.45434e-013	1.68796e-013	2.90969e-013	4.59778e-013	7.50953e-013	9.19878e-013	1.06547e-012	1.21132e-012	1.2112e-012	1.5258e-012	1.64864e-012	1.79456e-012	1.94054e-012	2.2783e-012	2.44745e-012	
FineR155	-1.18573e-012	-1.04061e-012	-8.9543e-013	-5.81431e-013	-4.36149e-013	-2.90817e-013	2.33564e-014	1.68796e-013	3.14286e-013	4.59827e-013	7.7423e-013	9.19878e-013	1.06558e-012	1.21132e-012	1.52596e-012	1.50276e-012	1.64864e-012	1.81772e-012	2.13253e-012	2.27854e-012	2.4246e-012	
FineR156	-1.18573e-012	-1.04061e-012	-7.26662e-013	-5.81431e-013	-4.36149e-013	-2.90817e-013	2.33564e-014	1.68796e-013	3.14286e-013	6.28633e-013	7.7423e-013	9.19878e-013	1.06558e-012	1.38015e-012	1.35694e-012	1.52596e-012	1.67181e-012	1.98657e-012	2.13253e-012	2.27854e-012	2.25542e-012	
FineR157	-1.3308e-012	-1.04045e-012	-7.26662e-013	-5.81431e-013	-6.04847e-013	-1.22032e-013	-1.45408e-013	0	4.83087e-013	6.28633e-013	7.7423e-013	9.19878e-013	1.0887e-012	1.21116e-012	1.38015e-012	1.50276e-012	1.84065e-012	1.98657e-012	2.13253e-012	2.27854e-012	2.27854e-012	
FineR158	-1.3308e-012	-1.01697e-012	-8.71843e-013	-7.50098e-013	-4.12658e-013	-9.86561e-014	2.33564e-014	0	4.83087e-013	6.28633e-013	6.05336e-013	9.43043e-013	1.25764e-012	1.21116e-012	1.38015e-012	1.52596e-012	1.84065e-012	1.98657e-012	2.13253e-012	2.30138e-012	2.42428e-012	
FineR159	-1.16205e-012	-1.01697e-012	-8.71843e-013	-5.57895e-013	-4.12658e-013	-2.6737e-013	-1.22032e-013	1.92147e-013	4.83087e-013	4.5977e-013	7.97508e-013	9.43043e-013	1.06544e-012	1.2344e-012	1.54898e-012	1.69479e-012	1.84065e-012	1.98657e-012	1.96341e-012	2.30138e-012	2.42428e-012	
FineR160	-1.16205e-012	-1.01697e-012	-8.71843e-013	-5.57895e-013	-4.12658e-013	-2.6737e-013	4.67524e-014	1.6879e-013	3.14255e-013	4.83087e-013	7.9744e-013	9.19765e-013	1.0887e-012	1.2344e-012	1.54898e-012	1.69479e-012	1.86363e-012	2.15541e-012	2.32452e-012	2.30138e-012	2.4474e-012	
MinCout:	0	FineR:	147	FineC:	127

