	CoarseC0	CoarseC10	CoarseC20	CoarseC30	CoarseC40	CoarseC50	CoarseC60	CoarseC70	CoarseC80	CoarseC90	CoarseC100	CoarseC110	CoarseC120	CoarseC130	CoarseC140	CoarseC150	CoarseC160	CoarseC170	CoarseC180	CoarseC190	CoarseC200	CoarseC210	CoarseC220	CoarseC230	CoarseC240	CoarseC250	
CoarseR0	-1.07876e-009	-1.03786e-009	-9.94803e-010	-9.57467e-010	-9.24882e-010	-8.97586e-010	-8.73834e-010	-8.53768e-010	-8.35965e-010	-8.20629e-010	-8.07202e-010	-7.9548e-010	-7.85165e-010	-7.76042e-010	-7.67831e-010	-7.60662e-010	-7.54384e-010	-7.48839e-010	-7.43976e-010	-7.39491e-010	-7.36007e-010	-7.32672e-010	-7.298e-010	-7.27192e-010	-7.25316e-010	-7.23719e-010	
CoarseR10	-8.12077e-010	-7.67135e-010	-7.26865e-010	-6.91953e-010	-6.61957e-010	-6.36578e-010	-6.14332e-010	-5.95478e-010	-5.7872e-010	-5.64266e-010	-5.51534e-010	-5.40246e-010	-5.30718e-010	-5.22095e-010	-5.14548e-010	-5.07721e-010	-5.01977e-010	-4.97163e-010	-4.93005e-010	-4.89388e-010	-4.8656e-010	-4.83913e-010	-4.81958e-010	-4.80341e-010	-4.78997e-010	-4.78167e-010	
CoarseR20	-6.43978e-010	-5.96373e-010	-5.57852e-010	-5.24943e-010	-4.9681e-010	-4.72782e-010	-4.51812e-010	-4.34014e-010	-4.18123e-010	-4.04377e-010	-3.92503e-010	-3.8201e-010	-3.73023e-010	-3.6521e-010	-3.58448e-010	-3.52586e-010	-3.4737e-010	-3.43122e-010	-3.39267e-010	-3.36464e-010	-3.33939e-010	-3.31985e-010	-3.3039e-010	-3.29507e-010	-3.28935e-010	-3.2864e-010	
CoarseR30	-5.24162e-010	-4.77469e-010	-4.40257e-010	-4.08793e-010	-3.82085e-010	-3.59138e-010	-3.39142e-010	-3.22119e-010	-3.07133e-010	-2.94347e-010	-2.83118e-010	-2.73469e-010	-2.64952e-010	-2.57743e-010	-2.5146e-010	-2.46158e-010	-2.4172e-010	-2.37854e-010	-2.34718e-010	-2.32299e-010	-2.30528e-010	-2.291e-010	-2.28256e-010	-2.27895e-010	-2.28081e-010	-2.28572e-010	
CoarseR40	-4.34809e-010	-3.88693e-010	-3.52823e-010	-3.22686e-010	-2.96925e-010	-2.75004e-010	-2.55989e-010	-2.39605e-010	-2.2529e-010	-2.13344e-010	-2.0271e-010	-1.93558e-010	-1.85723e-010	-1.79095e-010	-1.73321e-010	-1.68678e-010	-1.64772e-010	-1.61571e-010	-1.58931e-010	-1.57335e-010	-1.55992e-010	-1.55418e-010	-1.55551e-010	-1.56098e-010	-1.56899e-010	-1.58306e-010	
CoarseR50	-3.65636e-010	-3.20096e-010	-2.85429e-010	-2.56239e-010	-2.31269e-010	-2.10263e-010	-1.91787e-010	-1.76231e-010	-1.62691e-010	-1.51054e-010	-1.41081e-010	-1.32422e-010	-1.25208e-010	-1.192e-010	-1.13855e-010	-1.09712e-010	-1.06299e-010	-1.03741e-010	-1.02058e-010	-1.01104e-010	-1.00746e-010	-1.01076e-010	-1.01847e-010	-1.0337e-010	-1.05274e-010	-1.07932e-010	
CoarseR60	-3.09447e-010	-2.64723e-010	-2.31019e-010	-2.02695e-010	-1.78727e-010	-1.58302e-010	-1.40572e-010	-1.25495e-010	-1.12499e-010	-1.01486e-010	-9.19807e-011	-8.388e-011	-7.71568e-011	-7.14369e-011	-6.70605e-011	-6.33908e-011	-6.07427e-011	-5.88331e-011	-5.77893e-011	-5.76435e-011	-5.8052e-011	-5.92008e-011	-6.1242e-011	-6.40189e-011	-6.74948e-011	-7.20241e-011	
CoarseR70	-2.6293e-010	-2.19325e-010	-1.86573e-010	-1.59126e-010	-1.35691e-010	-1.1588e-010	-9.87093e-011	-8.41815e-011	-7.16221e-011	-6.1013e-011	-5.18952e-011	-4.44363e-011	-3.8137e-011	-3.30199e-011	-2.91042e-011	-2.60551e-011	-2.40555e-011	-2.31089e-011	-2.26978e-011	-2.35527e-011	-2.49321e-011	-2.75296e-011	-3.10232e-011	-3.55128e-011	-4.21306e-011	-5.00422e-011	
CoarseR80	-2.24064e-010	-1.81481e-010	-1.4942e-010	-1.22515e-010	-9.97496e-011	-8.04369e-011	-6.38371e-011	-4.96837e-011	-3.76766e-011	-2.73214e-011	-1.88067e-011	-1.17762e-011	-5.93608e-012	-1.6053e-012	1.84331e-012	4.25696e-012	5.60961e-012	6.07658e-012	5.3154e-012	3.49921e-012	6.5423e-013	-3.38649e-012	-9.62658e-012	-1.78159e-011	-2.56982e-011	-3.3267e-011	
CoarseR90	-1.90463e-010	-1.48536e-010	-1.17189e-010	-9.0908e-011	-6.87068e-011	-4.97201e-011	-3.34856e-011	-1.98765e-011	-8.12447e-012	1.64994e-012	9.74022e-012	1.63162e-011	2.17213e-011	2.55708e-011	2.83819e-011	2.99578e-011	3.047e-011	2.99734e-011	2.82011e-011	2.50647e-011	2.00913e-011	1.21559e-011	3.9879e-012	-3.98866e-012	-1.20679e-011	-2.00039e-011	
CoarseR100	-1.612e-010	-1.20152e-010	-8.9408e-011	-6.36107e-011	-4.17141e-011	-2.32618e-011	-7.22198e-012	5.98949e-012	1.7186e-011	2.6697e-011	3.45159e-011	4.06729e-011	4.52459e-011	4.87959e-011	5.09206e-011	5.18555e-011	5.13528e-011	4.9626e-011	4.65363e-011	4.08705e-011	3.21863e-011	2.3862e-011	1.56559e-011	7.17659e-012	-8.29381e-013	-8.17793e-012	
CoarseR110	-1.35986e-010	-9.56876e-011	-6.52521e-011	-3.9963e-011	-1.85866e-011	-3.1672e-013	1.53615e-011	2.83369e-011	3.91135e-011	4.82145e-011	5.55797e-011	6.14144e-011	6.55218e-011	6.85834e-011	7.00536e-011	6.99324e-011	6.8741e-011	6.56844e-011	5.95953e-011	5.09377e-011	4.24977e-011	3.37208e-011	2.49742e-011	1.72444e-011	9.68035e-012	2.78363e-012	
CoarseR120	-1.13497e-010	-7.381e-011	-4.37947e-011	-1.86907e-011	2.51497e-012	2.04191e-011	3.57036e-011	4.82909e-011	5.89785e-011	6.78093e-011	7.45528e-011	7.99149e-011	8.35204e-011	8.58925e-011	8.66623e-011	8.56739e-011	8.3115e-011	7.72049e-011	6.85709e-011	6.00245e-011	5.0975e-011	4.23465e-011	3.40474e-011	2.64123e-011	1.91371e-011	1.27385e-011	
CoarseR130	-9.32416e-011	-5.39945e-011	-2.44333e-011	3.58078e-013	2.12287e-011	3.89132e-011	5.39908e-011	6.63677e-011	7.6787e-011	8.5138e-011	9.17476e-011	9.66069e-011	9.97213e-011	1.01385e-010	1.01293e-010	9.92453e-011	9.44349e-011	8.56356e-011	7.67757e-011	6.72913e-011	5.85709e-011	5.03779e-011	4.29267e-011	3.56453e-011	2.88838e-011	2.24795e-011	
CoarseR140	-7.52467e-011	-3.63987e-011	-7.17139e-012	1.7335e-011	3.81683e-011	5.5683e-011	7.03427e-011	8.26182e-011	9.25882e-011	1.00648e-010	1.06787e-010	1.11323e-010	1.14085e-010	1.15051e-010	1.13885e-010	1.10501e-010	1.01975e-010	9.31523e-011	8.3532e-011	7.45548e-011	6.61504e-011	5.8316e-011	5.10197e-011	4.39046e-011	3.73375e-011	3.12986e-011	
CoarseR150	-5.91979e-011	-2.04596e-011	8.63091e-012	3.28443e-011	5.34942e-011	7.0608e-011	8.53656e-011	9.72e-011	1.0725e-010	1.1501e-010	1.20807e-010	1.24847e-010	1.26898e-010	1.26966e-010	1.24759e-010	1.17754e-010	1.08922e-010	9.96664e-011	9.02558e-011	8.14267e-011	7.33823e-011	6.57016e-011	5.85957e-011	5.20385e-011	4.5715e-011	3.98995e-011	
CoarseR160	-4.44875e-011	-6.14369e-012	2.2843e-011	4.68625e-011	6.7354e-011	8.42616e-011	9.89647e-011	1.10519e-010	1.20427e-010	1.27891e-010	1.33353e-010	1.3685e-010	1.38356e-010	1.37717e-010	1.33577e-010	1.24357e-010	1.15402e-010	1.05705e-010	9.6653e-011	8.81965e-011	8.03302e-011	7.30287e-011	6.59544e-011	5.96415e-011	5.36957e-011	4.81541e-011	
CoarseR170	-3.11518e-011	6.90046e-012	3.55738e-011	5.96229e-011	8.00668e-011	9.69335e-011	1.11193e-010	1.23013e-010	1.32473e-010	1.39578e-010	1.44873e-010	1.48028e-010	1.48837e-010	1.47154e-010	1.39653e-010	1.30985e-010	1.20935e-010	1.11789e-010	1.02906e-010	9.48249e-011	8.71645e-011	8.01159e-011	7.34579e-011	6.70107e-011	6.11419e-011	5.56647e-011	
CoarseR180	-1.90212e-011	1.89633e-011	4.74769e-011	7.13482e-011	9.16315e-011	1.08414e-010	1.22966e-010	1.34285e-010	1.43438e-010	1.50596e-010	1.55555e-010	1.57993e-010	1.58264e-010	1.54406e-010	1.45686e-010	1.36414e-010	1.26609e-010	1.17482e-010	1.0917e-010	1.01134e-010	9.39161e-011	8.69097e-011	8.04935e-011	7.4304e-011	6.85241e-011	6.31294e-011	
CoarseR190	-7.94195e-012	2.98976e-011	5.85256e-011	8.22115e-011	1.0246e-010	1.19339e-010	1.33486e-010	1.44896e-010	1.54068e-010	1.60713e-010	1.65154e-010	1.67203e-010	1.6658e-010	1.60361e-010	1.51517e-010	1.41674e-010	1.32082e-010	1.23358e-010	1.15091e-010	1.07471e-010	1.003e-010	9.33541e-011	8.7021e-011	8.11129e-011	7.56025e-011	7.02982e-011	
CoarseR200	2.12771e-012	4.00966e-011	6.85042e-011	9.23963e-011	1.12562e-010	1.29236e-010	1.43446e-010	1.54558e-010	1.6378e-010	1.70279e-010	1.74177e-010	1.76063e-010	1.74202e-010	1.66126e-010	1.56828e-010	1.46901e-010	1.37709e-010	1.29214e-010	1.21001e-010	1.13458e-010	1.06536e-010	1.00064e-010	9.38028e-011	8.79812e-011	8.24022e-011	7.74078e-011	
CoarseR210	1.17424e-011	4.93513e-011	7.80211e-011	1.01721e-010	1.21843e-010	1.38438e-010	1.52576e-010	1.63751e-010	1.72686e-010	1.78994e-010	1.82927e-010	1.83893e-010	1.79941e-010	1.71395e-010	1.61918e-010	1.52226e-010	1.43048e-010	1.34828e-010	1.26855e-010	1.19375e-010	1.12728e-010	1.06159e-010	1.002e-010	9.4488e-011	8.90074e-011	8.41182e-011	
CoarseR220	2.01965e-011	5.79746e-011	8.64573e-011	1.1024e-010	1.30357e-010	1.47273e-010	1.61255e-010	1.7235e-010	1.80927e-010	1.87317e-010	1.90485e-010	1.91161e-010	1.85247e-010	1.76768e-010	1.66722e-010	1.57435e-010	1.48531e-010	1.40364e-010	1.32483e-010	1.25263e-010	1.18712e-010	1.1245e-010	1.06427e-010	1.00986e-010	9.56562e-011	9.06847e-011	
CoarseR230	2.82936e-011	6.58781e-011	9.45487e-011	1.18374e-010	1.3844e-010	1.55249e-010	1.69171e-010	1.80135e-010	1.88931e-010	1.9476e-010	1.97841e-010	1.97978e-010	1.90536e-010	1.81641e-010	1.71823e-010	1.6242e-010	1.53755e-010	1.45826e-010	1.38255e-010	1.31301e-010	1.24888e-010	1.18512e-010	1.1262e-010	1.07143e-010	1.01889e-010	9.70643e-011	
CoarseR240	3.56426e-011	7.33546e-011	1.01813e-010	1.25788e-010	1.45801e-010	1.62519e-010	1.76775e-010	1.87786e-010	1.96273e-010	2.02168e-010	2.05006e-010	2.03623e-010	1.95391e-010	1.8633e-010	1.76778e-010	1.67629e-010	1.59061e-010	1.51254e-010	1.4371e-010	1.3693e-010	1.30403e-010	1.24317e-010	1.18739e-010	1.1318e-010	1.08056e-010	1.0321e-010	
CoarseR250	4.25928e-011	8.0279e-011	1.08798e-010	1.3259e-010	1.52903e-010	1.69554e-010	1.83638e-010	1.94517e-010	2.03088e-010	2.08657e-010	2.11373e-010	2.08892e-010	2.00579e-010	1.911e-010	1.81407e-010	1.72547e-010	1.64238e-010	1.56701e-010	1.49316e-010	1.4263e-010	1.36201e-010	1.30081e-010	1.24423e-010	1.19205e-010	1.14041e-010	1.09509e-010	
MinCout:	-3.1672e-013	CoarseR:	110	CoarseC:	50

	CoarseC40	CoarseC41	CoarseC42	CoarseC43	CoarseC44	CoarseC45	CoarseC46	CoarseC47	CoarseC48	CoarseC49	CoarseC50	CoarseC51	CoarseC52	CoarseC53	CoarseC54	CoarseC55	CoarseC56	CoarseC57	CoarseC58	CoarseC59	CoarseC60	
CoarseR100	-4.17125e-011	-3.97575e-011	-3.76276e-011	-3.56914e-011	-3.38667e-011	-3.20899e-011	-3.02845e-011	-2.83384e-011	-2.66936e-011	-2.47204e-011	-2.30972e-011	-2.14496e-011	-1.96782e-011	-1.81923e-011	-1.63942e-011	-1.49498e-011	-1.33132e-011	-1.17964e-011	-1.01558e-011	-8.84607e-012	-7.22198e-012	
CoarseR101	-3.92422e-011	-3.74463e-011	-3.53448e-011	-3.33575e-011	-3.13918e-011	-2.97571e-011	-2.78138e-011	-2.61717e-011	-2.42235e-011	-2.2603e-011	-2.06247e-011	-1.89775e-011	-1.73748e-011	-1.56993e-011	-1.40917e-011	-1.24579e-011	-1.09867e-011	-9.49403e-012	-7.85524e-012	-6.52386e-012	-4.94366e-012	
CoarseR102	-3.69197e-011	-3.49607e-011	-3.26664e-011	-3.10363e-011	-2.90711e-011	-2.74603e-011	-2.54676e-011	-2.35222e-011	-2.17394e-011	-2.01192e-011	-1.82841e-011	-1.66844e-011	-1.48675e-011	-1.33826e-011	-1.17754e-011	-1.03074e-011	-8.67187e-012	-7.17959e-012	-5.56244e-012	-4.23167e-012	-2.42024e-012	
CoarseR103	-3.44402e-011	-3.24572e-011	-3.04931e-011	-2.87234e-011	-2.67584e-011	-2.49588e-011	-2.31815e-011	-2.121e-011	-1.95928e-011	-1.76193e-011	-1.59974e-011	-1.43507e-011	-1.27245e-011	-1.1096e-011	-9.46532e-012	-7.81036e-012	-6.17536e-012	-4.87152e-012	-3.23213e-012	-1.73659e-012	-2.79972e-013	
CoarseR104	-3.21134e-011	-3.02944e-011	-2.81944e-011	-2.62076e-011	-2.42431e-011	-2.26334e-011	-2.06904e-011	-1.90503e-011	-1.71025e-011	-1.54603e-011	-1.38391e-011	-1.21928e-011	-1.02352e-011	-8.74985e-012	-7.09772e-012	-5.4666e-012	-3.99817e-012	-2.55118e-012	-9.12344e-013	4.16778e-013	2.20613e-012	
CoarseR105	-2.97463e-011	-2.79304e-011	-2.56645e-011	-2.4033e-011	-2.2069e-011	-2.02714e-011	-1.84936e-011	-1.6523e-011	-1.47417e-011	-1.31232e-011	-1.12887e-011	-9.69018e-012	-8.065e-012	-6.39146e-012	-4.7622e-012	-3.13114e-012	-1.49722e-012	-1.94615e-013	1.2763e-012	2.77231e-012	4.3931e-012	
CoarseR106	-2.75324e-011	-2.55779e-011	-2.34763e-011	-2.16813e-011	-1.97196e-011	-1.8085e-011	-1.61427e-011	-1.43375e-011	-1.25568e-011	-1.0939e-011	-9.12903e-012	-7.48367e-012	-5.69235e-012	-4.23258e-012	-2.60361e-012	-9.49866e-013	6.83471e-013	1.9854e-012	3.62319e-012	5.09592e-012	6.57167e-012	
CoarseR107	-2.52171e-011	-2.3235e-011	-2.12759e-011	-1.93412e-011	-1.75422e-011	-1.57194e-011	-1.39424e-011	-1.21648e-011	-1.03829e-011	-8.57548e-012	-6.956e-012	-5.31093e-012	-3.52006e-012	-1.87085e-012	-2.42456e-013	1.24392e-012	2.68742e-012	4.1776e-012	5.81465e-012	7.12012e-012	8.73964e-012	
CoarseR108	-2.30027e-011	-2.10461e-011	-1.89231e-011	-1.71265e-011	-1.51896e-011	-1.35076e-011	-1.15659e-011	-9.95409e-012	-7.98236e-012	-6.36593e-012	-4.74714e-012	-3.10257e-012	-1.31205e-012	3.36682e-013	1.96443e-012	3.28311e-012	4.89296e-012	6.52753e-012	8.01909e-012	9.34515e-012	1.09427e-011	
CoarseR109	-2.06347e-011	-1.89853e-011	-1.67217e-011	-1.50934e-011	-1.31307e-011	-1.11669e-011	-9.53355e-012	-7.5886e-012	-5.97494e-012	-4.16737e-012	-2.52528e-012	-9.04953e-013	8.84088e-013	2.36582e-012	3.99292e-012	5.62305e-012	7.25491e-012	8.74421e-012	1.01915e-011	1.16846e-011	1.31577e-011	
CoarseR110	-1.84226e-011	-1.66056e-011	-1.45088e-011	-1.27144e-011	-1.07521e-011	-9.12142e-012	-7.15485e-012	-5.51994e-012	-3.76351e-012	-1.93413e-012	-1.48837e-013	1.30492e-012	3.11665e-012	4.57416e-012	6.1781e-012	7.83033e-012	9.46153e-012	1.07825e-011	1.24195e-011	1.39119e-011	1.55086e-011	
CoarseR111	-1.63885e-011	-1.44076e-011	-1.24502e-011	-1.06813e-011	-8.71943e-012	-6.92092e-012	-5.09828e-012	-3.15469e-012	-1.54234e-012	2.64557e-013	1.88137e-012	3.5245e-012	5.1459e-012	6.7933e-012	8.37343e-012	9.88024e-012	1.15106e-011	1.30003e-011	1.46351e-011	1.5938e-011	1.75547e-011	
CoarseR112	-1.39842e-011	-1.21679e-011	-1.00721e-011	-8.27803e-012	-6.48516e-012	-4.68677e-012	-2.88638e-012	-1.11163e-012	7.17367e-013	2.33102e-012	3.94708e-012	5.58966e-012	7.3788e-012	9.00183e-012	1.06509e-011	1.21111e-011	1.37192e-011	1.50386e-011	1.6675e-011	1.79751e-011	1.9614e-011	
CoarseR113	-1.20689e-011	-9.9458e-012	-7.98946e-012	-6.36489e-012	-4.40414e-012	-2.60627e-012	-8.3476e-013	9.42793e-013	2.74677e-012	4.55073e-012	6.16641e-012	7.64217e-012	9.57374e-012	1.10535e-011	1.26783e-011	1.41605e-011	1.56222e-011	1.70881e-011	1.87219e-011	2.00466e-011	2.16619e-011	
CoarseR114	-9.8623e-012	-8.04667e-012	-5.94742e-012	-4.13264e-012	-2.19753e-012	-5.39974e-013	1.23077e-012	3.00779e-012	4.80801e-012	6.61454e-012	8.22942e-012	9.70452e-012	1.14907e-011	1.31146e-011	1.47627e-011	1.622e-011	1.7681e-011	1.93143e-011	2.07795e-011	2.21037e-011	2.37181e-011	
CoarseR115	-7.75558e-012	-5.8024e-012	-3.87279e-012	-2.07977e-012	-1.19695e-013	1.67794e-012	3.30822e-012	5.27488e-012	6.8844e-012	8.69076e-012	1.0305e-011	1.19463e-011	1.37571e-011	1.50438e-011	1.68365e-011	1.83169e-011	1.99449e-011	2.141e-011	2.28744e-011	2.41745e-011	2.57883e-011	
CoarseR116	-5.52604e-012	-3.71119e-012	-1.78251e-012	5.74315e-015	1.80027e-012	3.62238e-012	5.39601e-012	7.16829e-012	8.97073e-012	1.0607e-011	1.22205e-011	1.38612e-011	1.5649e-011	1.69327e-011	1.87495e-011	2.0229e-011	2.18563e-011	2.33209e-011	2.47845e-011	2.60839e-011	2.76968e-011	
CoarseR117	-3.62021e-012	-1.641e-012	3.13688e-013	2.10546e-012	4.03958e-012	5.52578e-012	7.46482e-012	9.07066e-012	1.08726e-011	1.25084e-011	1.42912e-011	1.59564e-011	1.75738e-011	1.91936e-011	2.06483e-011	2.22757e-011	2.39237e-011	2.5388e-011	2.68749e-011	2.81734e-011	2.97855e-011	
CoarseR118	-1.34189e-012	4.72148e-013	2.39949e-012	4.19199e-012	6.15067e-012	7.77718e-012	9.57446e-012	1.13498e-011	1.31492e-011	1.4763e-011	1.64234e-011	1.80628e-011	1.96543e-011	2.12983e-011	2.27553e-011	2.43791e-011	2.58373e-011	2.73253e-011	2.87857e-011	3.0274e-011	3.18654e-011	
CoarseR119	5.84124e-013	2.37179e-012	4.49056e-012	6.28136e-012	8.10048e-012	9.7261e-012	1.14985e-011	1.34633e-011	1.50699e-011	1.68753e-011	1.84868e-011	1.9959e-011	2.15751e-011	2.32186e-011	2.48395e-011	2.62984e-011	2.7924e-011	2.94081e-011	3.08696e-011	3.21668e-011	3.37774e-011	
CoarseR120	2.52135e-012	4.47367e-012	6.40001e-012	8.21719e-012	1.00093e-011	1.16345e-011	1.34305e-011	1.53972e-011	1.70031e-011	1.86116e-011	2.03935e-011	2.18907e-011	2.35061e-011	2.5124e-011	2.67694e-011	2.8224e-011	2.96846e-011	3.1168e-011	3.27973e-011	3.40938e-011	3.57278e-011	
MinCout:	5.74315e-015	CoarseR:	116	CoarseC:	43

	FineC0	FineC10	FineC20	FineC30	FineC40	FineC50	FineC60	FineC70	FineC80	FineC90	FineC100	FineC110	FineC120	FineC130	FineC140	FineC150	FineC160	FineC170	FineC180	FineC190	FineC200	FineC210	FineC220	FineC230	FineC240	FineC250	
FineR0	-1.31215e-010	-1.0606e-010	-9.0489e-011	-7.93291e-011	-7.04855e-011	-6.36677e-011	-5.81349e-011	-5.36618e-011	-4.98066e-011	-4.66692e-011	-4.38084e-011	-4.16021e-011	-3.93233e-011	-3.75581e-011	-3.60612e-011	-3.45612e-011	-3.33876e-011	-3.21965e-011	-3.11274e-011	-3.02431e-011	-2.93424e-011	-2.84176e-011	-2.7682e-011	-2.7086e-011	-2.64977e-011	-2.58817e-011	
FineR10	-1.14416e-010	-8.95567e-011	-7.41563e-011	-6.29475e-011	-5.41657e-011	-4.7464e-011	-4.21076e-011	-3.76355e-011	-3.37628e-011	-3.06267e-011	-2.79814e-011	-2.55889e-011	-2.34788e-011	-2.15562e-011	-2.00818e-011	-1.87482e-011	-1.73932e-011	-1.61803e-011	-1.51125e-011	-1.42309e-011	-1.33297e-011	-1.25932e-011	-1.18576e-011	-1.12446e-011	-1.05069e-011	-1.00412e-011	
FineR20	-1.07004e-010	-8.23213e-011	-6.69283e-011	-5.57303e-011	-4.69313e-011	-4.00955e-011	-3.48799e-011	-3.02763e-011	-2.65451e-011	-2.36042e-011	-2.05846e-011	-1.83857e-011	-1.62783e-011	-1.44994e-011	-1.28609e-011	-1.13854e-011	-1.01972e-011	-8.98748e-012	-7.9416e-012	-7.06285e-012	-6.16086e-012	-5.42667e-012	-4.81541e-012	-4.07926e-012	-3.46652e-012	-2.8768e-012	
FineR30	-1.03053e-010	-7.80604e-011	-6.27983e-011	-5.1635e-011	-4.28108e-011	-3.61212e-011	-3.06308e-011	-2.61676e-011	-2.24407e-011	-1.93371e-011	-1.66503e-011	-1.41221e-011	-1.20163e-011	-1.02389e-011	-8.76862e-012	-7.27322e-012	-6.10888e-012	-4.89977e-012	-3.85493e-012	-2.97621e-012	-2.07508e-012	-1.34132e-012	-7.51537e-013	5.27791e-015	5.96415e-013	1.22739e-012	
FineR40	-1.00239e-010	-7.54147e-011	-5.99741e-011	-4.88164e-011	-4.01837e-011	-3.34978e-011	-2.80102e-011	-2.35496e-011	-1.9659e-011	-1.67002e-011	-1.38719e-011	-1.14885e-011	-9.40626e-012	-7.63002e-012	-6.16076e-012	-4.64441e-012	-3.3141e-012	-2.27199e-012	-1.22807e-012	-3.50547e-013	5.49958e-013	1.28337e-012	2.03895e-012	2.62883e-012	3.38616e-012	3.82971e-012	
FineR50	-9.83655e-011	-7.35185e-011	-5.83034e-011	-4.70899e-011	-3.83212e-011	-3.1613e-011	-2.61031e-011	-2.16713e-011	-1.79468e-011	-1.48466e-011	-1.19969e-011	-9.6129e-012	-7.53302e-012	-5.75776e-012	-4.28937e-012	-2.79546e-012	-1.44395e-012	-4.02441e-013	6.40885e-013	1.53948e-012	2.41807e-012	3.17235e-012	3.73957e-012	4.49584e-012	5.25271e-012	5.67526e-012	
FineR60	-9.70257e-011	-7.22218e-011	-5.68086e-011	-4.5598e-011	-3.69718e-011	-3.0125e-011	-2.47802e-011	-2.03503e-011	-1.66273e-011	-1.33399e-011	-1.06798e-011	-8.46324e-012	-6.38425e-012	-4.44281e-012	-2.8087e-012	-1.48242e-012	-2.75964e-013	1.07728e-012	1.95241e-012	2.82901e-012	3.72857e-012	4.62975e-012	5.40609e-012	5.82645e-012	6.58343e-012	7.00565e-012	
FineR70	-9.5912e-011	-7.10662e-011	-5.56643e-011	-4.44831e-011	-3.58879e-011	-2.91506e-011	-2.36444e-011	-1.93801e-011	-1.55175e-011	-1.23959e-011	-9.57106e-012	-7.16562e-012	-5.10974e-012	-3.47954e-012	-1.84577e-012	-3.53122e-013	9.9757e-013	2.01636e-012	3.08074e-012	4.1238e-012	4.8563e-012	5.589e-012	6.34371e-012	6.93293e-012	7.52059e-012	8.27845e-012	
FineR80	-9.49433e-011	-7.02985e-011	-5.49271e-011	-4.37204e-011	-3.49314e-011	-2.83908e-011	-2.29127e-011	-1.82918e-011	-1.45943e-011	-1.16397e-011	-8.64898e-012	-6.41049e-012	-4.33189e-012	-2.39197e-012	-9.25308e-013	5.89423e-013	1.77286e-012	2.95788e-012	3.9785e-012	4.87635e-012	5.77548e-012	6.50809e-012	7.09569e-012	7.85107e-012	8.60809e-012	9.07186e-012	
FineR90	-9.44094e-011	-6.95305e-011	-5.41618e-011	-4.2957e-011	-3.43316e-011	-2.76554e-011	-2.21508e-011	-1.76955e-011	-1.38362e-011	-1.07157e-011	-8.03365e-012	-5.67692e-012	-3.76548e-012	-1.80293e-012	-1.69796e-013	1.15514e-012	2.50507e-012	3.7127e-012	4.58673e-012	5.44089e-012	6.36154e-012	7.24065e-012	8.01676e-012	8.43633e-012	9.19318e-012	9.63541e-012	
FineR100	-9.38241e-011	-6.88135e-011	-5.3584e-011	-4.24081e-011	-3.37835e-011	-2.70826e-011	-2.17428e-011	-1.71247e-011	-1.34297e-011	-1.01452e-011	-7.48815e-012	-5.10862e-012	-3.03085e-012	-1.23541e-012	3.97374e-013	1.72201e-012	3.07169e-012	4.08926e-012	5.15287e-012	6.0068e-012	6.92731e-012	7.63782e-012	8.56064e-012	9.00165e-012	9.73692e-012	1.03677e-011	
FineR110	-9.32289e-011	-6.84275e-011	-5.31661e-011	-4.18586e-011	-3.3239e-011	-2.65599e-011	-2.10317e-011	-1.65777e-011	-1.28607e-011	-9.76545e-012	-7.08543e-012	-4.56281e-012	-2.4623e-012	-8.56822e-013	7.75739e-013	2.26751e-012	3.44971e-012	4.63482e-012	5.67552e-012	6.57267e-012	7.47183e-012	8.20452e-012	8.95867e-012	9.71462e-012	1.01345e-011	1.07437e-011	
FineR120	-9.28827e-011	-6.80424e-011	-5.26497e-011	-4.16368e-011	-3.28528e-011	-2.59842e-011	-2.0648e-011	-1.61972e-011	-1.24789e-011	-9.38436e-012	-6.56254e-012	-4.15928e-012	-2.08281e-012	-3.10956e-013	1.1544e-012	2.64583e-012	3.9953e-012	5.03474e-012	6.076e-012	7.11805e-012	8.01722e-012	8.58139e-012	9.33538e-012	1.00912e-011	1.05109e-011	1.12888e-011	
FineR130	-9.26822e-011	-6.74911e-011	-5.24199e-011	-4.10835e-011	-3.24705e-011	-2.57655e-011	-2.02917e-011	-1.56743e-011	-1.21478e-011	-9.00424e-012	-6.34851e-012	-3.77962e-012	-1.89283e-012	4.56006e-014	1.70029e-012	3.00197e-012	4.20621e-012	5.58e-012	6.4317e-012	7.32854e-012	8.22666e-012	9.12699e-012	9.71376e-012	1.04685e-011	1.10564e-011	1.14982e-011	
FineR140	-9.22852e-011	-6.74587e-011	-5.20638e-011	-4.08933e-011	-3.22468e-011	-2.5409e-011	-2.00471e-011	-1.56242e-011	-1.19309e-011	-8.64762e-012	-5.99189e-012	-3.61235e-012	-1.51314e-012	4.25091e-013	1.88991e-012	3.2139e-012	4.56294e-012	5.76902e-012	6.78848e-012	7.68533e-012	8.60543e-012	9.3154e-012	1.00706e-011	1.06567e-011	1.14338e-011	1.18551e-011	
FineR150	-9.20858e-011	-6.70958e-011	-5.18402e-011	-4.05058e-011	-3.18871e-011	-2.52162e-011	-1.98818e-011	-1.5266e-011	-1.15489e-011	-8.4554e-012	-5.63453e-012	-3.23195e-012	-1.34607e-012	6.14976e-013	2.10229e-012	3.59294e-012	4.91985e-012	5.9366e-012	6.99977e-012	7.87434e-012	8.79435e-012	9.52613e-012	1.02798e-011	1.08671e-011	1.16019e-011	1.22121e-011	
FineR160	-9.18955e-011	-6.68988e-011	-5.16779e-011	-4.03424e-011	-3.18892e-011	-2.50259e-011	-1.9523e-011	-1.50742e-011	-1.13575e-011	-8.26439e-012	-5.42032e-012	-3.04151e-012	-9.65938e-013	8.27814e-013	2.45905e-012	3.78257e-012	5.10934e-012	6.12593e-012	7.35612e-012	8.25269e-012	9.15054e-012	9.71506e-012	1.04687e-011	1.12231e-011	1.16435e-011	1.24211e-011	
FineR170	-9.15302e-011	-6.65505e-011	-5.13161e-011	-4.01479e-011	-3.1503e-011	-2.48585e-011	-1.93307e-011	-1.48578e-011	-1.11913e-011	-8.0733e-012	-5.06273e-012	-2.851e-012	-7.52555e-013	1.16207e-012	2.62649e-012	3.95011e-012	5.2989e-012	6.50478e-012	7.54543e-012	8.44189e-012	9.31858e-012	1.00713e-011	1.06576e-011	1.13913e-011	1.21684e-011	1.25895e-011	
FineR180	-9.15285e-011	-6.63466e-011	-5.12865e-011	-3.99222e-011	-3.14725e-011	-2.46375e-011	-1.93047e-011	-1.46904e-011	-1.09745e-011	-7.71673e-012	-5.03866e-012	-2.6604e-012	-5.8529e-013	1.20802e-012	2.8389e-012	4.16205e-012	5.51042e-012	6.69359e-012	7.73481e-012	8.60902e-012	9.50675e-012	1.00921e-011	1.08247e-011	1.16008e-011	1.21886e-011	1.27769e-011	
FineR190	-9.11647e-011	-6.6345e-011	-5.10856e-011	-3.99209e-011	-3.11167e-011	-2.44444e-011	-1.89467e-011	-1.4523e-011	-1.06422e-011	-7.54936e-012	-4.87087e-012	-2.32688e-012	-4.17997e-013	1.37529e-012	3.17326e-012	4.32927e-012	5.67763e-012	6.71604e-012	7.902e-012	8.79835e-012	9.52875e-012	1.02592e-011	1.11823e-011	1.1768e-011	1.23557e-011	1.2944e-011	
FineR200	-9.0965e-011	-6.61411e-011	-5.07585e-011	-3.97533e-011	-3.09491e-011	-2.42768e-011	-1.87792e-011	-1.43072e-011	-1.04748e-011	-7.33348e-012	-4.6799e-012	-2.32641e-012	-2.2792e-013	1.54259e-012	3.19595e-012	4.51867e-012	5.67776e-012	7.05104e-012	7.92349e-012	8.98772e-012	9.69593e-012	1.06168e-011	1.13702e-011	1.19365e-011	1.25447e-011	1.31533e-011	
FineR210	-9.09633e-011	-6.61395e-011	-5.07569e-011	-3.93937e-011	-3.09185e-011	-2.40848e-011	-1.87531e-011	-1.41643e-011	-1.04488e-011	-7.3328e-012	-4.51348e-012	-2.1121e-012	-6.05608e-014	1.73254e-012	3.38608e-012	4.68624e-012	6.0345e-012	7.0728e-012	8.28011e-012	9.15497e-012	1.00525e-011	1.0784e-011	1.13701e-011	1.21243e-011	1.25445e-011	1.3322e-011	
FineR220	-9.08064e-011	-6.57843e-011	-5.05277e-011	-3.93651e-011	-3.05888e-011	-2.39172e-011	-1.85586e-011	-1.41388e-011	-1.0257e-011	-6.9999e-012	-4.34604e-012	-2.11156e-012	1.53144e-013	1.92291e-012	3.38641e-012	4.87624e-012	6.2018e-012	7.24009e-012	8.30254e-012	9.17626e-012	1.00736e-011	1.08049e-011	1.17267e-011	1.21461e-011	1.2901e-011	1.33423e-011	
FineR230	-9.07634e-011	-6.57761e-011	-5.03616e-011	-3.93908e-011	-3.05875e-011	-2.3916e-011	-1.83939e-011	-1.37808e-011	-1.00903e-011	-6.9746e-012	-4.32139e-012	-1.75436e-012	2.96981e-013	1.92307e-012	3.57629e-012	4.89867e-012	6.22389e-012	7.40805e-012	8.28033e-012	9.5117e-012	1.00736e-011	1.09733e-011	1.17267e-011	1.25027e-011	1.29009e-011	1.35095e-011	
FineR240	-9.05546e-011	-6.57743e-011	-5.036e-011	-3.90311e-011	-3.05832e-011	-2.37495e-011	-1.8391e-011	-1.37786e-011	-1.00642e-011	-6.80782e-012	-4.13088e-012	-1.7772e-012	3.20589e-013	2.09033e-012	3.72084e-012	5.04361e-012	6.41358e-012	7.42987e-012	8.63706e-012	9.53302e-012	1.04092e-011	1.11615e-011	1.17474e-011	1.24807e-011	1.30887e-011	1.36987e-011	
FineR250	-9.043e-011	-6.55785e-011	-5.01655e-011	-3.89986e-011	-3.03905e-011	-2.37204e-011	-1.81993e-011	-1.37776e-011	-9.89846e-012	-6.78248e-012	-3.96302e-012	-1.75307e-012	3.44236e-013	2.28052e-012	3.91075e-012	5.23314e-012	6.41384e-012	7.59641e-012	8.65865e-012	9.53212e-012	1.04082e-011	1.13288e-011	1.20613e-011	1.25013e-011	1.32779e-011	1.36768e-011	
MinCout:	5.27791e-015	FineR:	30	FineC:	230

	FineC120	FineC121	FineC122	FineC123	FineC124	FineC125	FineC126	FineC127	FineC128	FineC129	FineC130	FineC131	FineC132	FineC133	FineC134	FineC135	FineC136	FineC137	FineC138	FineC139	FineC140	
FineR120	-2.08281e-012	-1.93922e-012	-1.79558e-012	-1.65189e-012	-1.34132e-012	-1.19753e-012	-1.05368e-012	-9.09789e-013	-5.99002e-013	-4.55004e-013	-3.10956e-013	-3.33707e-013	-2.27316e-014	1.2144e-013	2.6566e-013	4.0993e-013	5.54249e-013	8.65503e-013	1.00993e-012	9.87311e-013	1.1544e-012	
FineR121	-2.08281e-012	-1.96235e-012	-1.81867e-012	-1.48507e-012	-1.34132e-012	-1.19753e-012	-1.22038e-012	-7.42951e-013	-5.99002e-013	-4.55004e-013	-3.33746e-013	-1.66853e-013	-2.27316e-014	1.2144e-013	2.6566e-013	5.99479e-013	7.2113e-013	8.88139e-013	8.65503e-013	1.00993e-012	1.3213e-012	
FineR122	-2.08302e-012	-1.93922e-012	-1.62893e-012	-1.62877e-012	-1.531e-012	-1.19753e-012	-1.05355e-012	-9.32607e-013	-5.99002e-013	-4.54949e-013	-2.88156e-013	-1.66853e-013	-2.27316e-014	3.11016e-013	4.55223e-013	5.99479e-013	7.21199e-013	7.2113e-013	8.65503e-013	1.17682e-012	1.3213e-012	
FineR123	-1.9162e-012	-1.93915e-012	-1.79552e-012	-1.65184e-012	-1.17462e-012	-1.19749e-012	-1.05366e-012	-9.09773e-013	-5.98984e-013	-4.54996e-013	-3.10959e-013	-1.66873e-013	1.44141e-013	3.11016e-013	4.32572e-013	5.99479e-013	5.54182e-013	8.8801e-013	1.03239e-012	1.19943e-012	1.34389e-012	
FineR124	-2.08273e-012	-1.93915e-012	-1.79552e-012	-1.48501e-012	-1.34128e-012	-1.19749e-012	-1.05366e-012	-7.42922e-013	-5.98984e-013	-4.54996e-013	-1.44092e-013	0	1.44141e-013	3.11049e-013	4.32498e-013	5.76762e-013	7.66354e-013	8.88099e-013	1.03249e-012	1.17693e-012	1.48834e-012	
FineR125	-2.05976e-012	-1.74938e-012	-1.6287e-012	-1.48516e-012	-1.31838e-012	-1.00778e-012	-8.63958e-013	-7.20089e-013	-5.98984e-013	-2.88134e-013	-1.44092e-013	0	1.44141e-013	3.11049e-013	4.55215e-013	5.76762e-013	7.43755e-013	8.88099e-013	1.22191e-012	1.36647e-012	1.34385e-012	
FineR126	-2.05976e-012	-1.74938e-012	-1.60577e-012	-1.4621e-012	-1.15155e-012	-1.00778e-012	-8.63958e-013	-7.20089e-013	-4.32127e-013	-2.65339e-013	-1.21316e-013	0	3.33756e-013	4.77933e-013	4.55215e-013	5.99461e-013	9.10649e-013	1.07766e-012	1.1994e-012	1.1994e-012	1.34385e-012	
FineR127	-1.91611e-012	-1.77251e-012	-1.62886e-012	-1.31831e-012	-1.15166e-012	-1.00788e-012	-7.20035e-013	-5.53237e-013	-4.09313e-013	-2.65339e-013	4.55512e-014	1.89629e-013	1.66873e-013	3.11019e-013	6.22099e-013	7.6643e-013	9.33328e-013	1.07766e-012	1.22204e-012	1.3663e-012	1.51076e-012	
FineR128	-1.89314e-012	-1.60567e-012	-1.43908e-012	-1.31831e-012	-1.17456e-012	-8.40938e-013	-7.20035e-013	-5.53288e-013	-4.32169e-013	-1.21281e-013	6.83268e-014	1.66892e-013	1.89629e-013	4.7795e-013	6.22165e-013	7.6643e-013	9.10744e-013	1.05511e-012	1.22203e-012	1.38894e-012	1.51091e-012	
FineR129	-1.7263e-012	-1.58272e-012	-1.43908e-012	-1.2954e-012	-9.84806e-013	-8.41016e-013	-8.63893e-013	-7.20035e-013	-2.42473e-013	-9.84805e-014	-1.21281e-013	2.2781e-014	3.56502e-013	4.7795e-013	6.22165e-013	7.6643e-013	1.10022e-012	1.07766e-012	1.22203e-012	1.36644e-012	1.51091e-012	
FineR130	-1.89283e-012	-1.74928e-012	-1.43883e-012	-1.29517e-012	-1.15146e-012	-1.0077e-012	-6.97034e-013	-5.5317e-013	-4.09256e-013	-2.65293e-013	4.56006e-014	1.89668e-013	3.33784e-013	4.7795e-013	6.22165e-013	9.56042e-013	9.33338e-013	1.07766e-012	1.22203e-012	1.36644e-012	1.67784e-012	
FineR131	-1.7263e-012	-1.55947e-012	-1.43883e-012	-1.29517e-012	-1.15146e-012	-8.17952e-013	-6.74156e-013	-5.30311e-013	-2.42385e-013	-7.55975e-014	6.84009e-014	2.12449e-013	3.56546e-013	6.6759e-013	8.11791e-013	9.56042e-013	9.33338e-013	1.26726e-012	1.38895e-012	1.53337e-012	1.70047e-012	
FineR132	-1.70301e-012	-1.5826e-012	-1.43897e-012	-1.27224e-012	-9.84706e-013	-8.40926e-013	-6.74156e-013	-3.63446e-013	-2.19547e-013	-7.55975e-014	6.84009e-014	3.79335e-013	5.23438e-013	6.6759e-013	6.44848e-013	8.11791e-013	1.12295e-012	1.26726e-012	1.41161e-012	1.55601e-012	1.53337e-012	
FineR133	-1.72617e-012	-1.5826e-012	-1.27212e-012	-1.12844e-012	-9.61697e-013	-8.17952e-013	-5.30219e-013	-3.86335e-013	-2.19547e-013	-7.55953e-014	2.12512e-013	3.79335e-013	5.23438e-013	6.90332e-013	8.34487e-013	9.78694e-013	1.12295e-012	1.26726e-012	1.41161e-012	1.72294e-012	1.70047e-012	
FineR134	-1.70318e-012	-1.39277e-012	-1.27212e-012	-1.10549e-012	-9.61784e-013	-6.5115e-013	-5.07336e-013	-3.63472e-013	-2.19558e-013	9.13e-014	2.12512e-013	3.79385e-013	5.23501e-013	5.23438e-013	8.34487e-013	9.78694e-013	1.10037e-012	1.26739e-012	1.5787e-012	1.57853e-012	1.70047e-012	
FineR135	-1.70318e-012	-1.39277e-012	-1.24916e-012	-1.10549e-012	-7.94916e-013	-6.282e-013	-5.07336e-013	-3.63472e-013	-5.26759e-014	9.13e-014	2.35318e-013	2.12512e-013	5.23505e-013	6.67646e-013	8.11836e-013	9.56076e-013	1.10037e-012	1.43417e-012	1.43417e-012	1.55603e-012	1.70047e-012	
FineR136	-1.53633e-012	-1.39277e-012	-1.24916e-012	-9.38631e-013	-7.94916e-013	-6.28248e-013	-4.84453e-013	-1.96587e-013	-5.26683e-014	1.14125e-013	6.8475e-014	5.46291e-013	5.23505e-013	6.90413e-013	8.11836e-013	9.78805e-013	1.29e-012	1.43433e-012	1.41164e-012	1.55603e-012	1.70047e-012	
FineR137	-1.51333e-012	-1.39277e-012	-1.22591e-012	-1.0823e-012	-7.71994e-013	-6.28248e-013	-4.84277e-013	-3.6334e-013	-5.26683e-014	-7.55126e-014	2.58195e-013	4.02218e-013	5.46291e-013	6.90413e-013	8.34584e-013	1.14573e-012	1.29e-012	1.26729e-012	1.41164e-012	1.72297e-012	1.89007e-012	
FineR138	-1.67984e-012	-1.53633e-012	-1.05934e-012	-1.0823e-012	-9.38631e-013	-6.28047e-013	-4.84277e-013	-3.40457e-013	-1.96587e-013	1.14222e-013	2.58195e-013	4.02218e-013	5.46291e-013	6.90413e-013	1.0015e-012	1.14573e-012	1.123e-012	1.29e-012	1.60126e-012	1.74564e-012	1.89007e-012	
FineR139	-1.70302e-012	-1.36948e-012	-1.24901e-012	-1.10536e-012	-7.7183e-013	-6.51022e-013	-4.84277e-013	-3.40457e-013	-2.97027e-014	1.14222e-013	2.58195e-013	4.02218e-013	5.46291e-013	8.57324e-013	1.0015e-012	9.78753e-013	1.123e-012	1.43422e-012	1.60126e-012	1.74564e-012	1.89007e-012	
FineR140	-1.53616e-012	-1.36948e-012	-1.22591e-012	-9.1544e-013	-7.94777e-013	-6.28047e-013	-4.84277e-013	-1.73578e-013	-5.25587e-014	1.14222e-013	2.58195e-013	5.69119e-013	7.13197e-013	8.80091e-013	8.57324e-013	1.14567e-012	1.31265e-012	1.45693e-012	1.60126e-012	1.74564e-012	1.72297e-012	
MinCout:	0	FineR:	124	FineC:	131

