	CoarseC0	CoarseC10	CoarseC20	CoarseC30	CoarseC40	CoarseC50	CoarseC60	CoarseC70	CoarseC80	CoarseC90	CoarseC100	CoarseC110	CoarseC120	CoarseC130	CoarseC140	CoarseC150	CoarseC160	CoarseC170	CoarseC180	CoarseC190	CoarseC200	CoarseC210	CoarseC220	CoarseC230	CoarseC240	CoarseC250	
CoarseR0	-1.06509e-009	-1.01885e-009	-9.75678e-010	-9.3831e-010	-9.06611e-010	-8.79861e-010	-8.56559e-010	-8.36866e-010	-8.19425e-010	-8.04413e-010	-7.91377e-010	-7.7977e-010	-7.69557e-010	-7.60705e-010	-7.52619e-010	-7.45516e-010	-7.39278e-010	-7.33924e-010	-7.29275e-010	-7.25074e-010	-7.2128e-010	-7.18068e-010	-7.15452e-010	-7.13138e-010	-7.11168e-010	-7.09573e-010	
CoarseR10	-7.98407e-010	-7.49484e-010	-7.09301e-010	-6.74614e-010	-6.45478e-010	-6.20559e-010	-5.99077e-010	-5.80314e-010	-5.64023e-010	-5.49662e-010	-5.37082e-010	-5.26367e-010	-5.16665e-010	-5.08247e-010	-5.00713e-010	-4.94122e-010	-4.88494e-010	-4.83777e-010	-4.79667e-010	-4.76119e-010	-4.73384e-010	-4.71038e-010	-4.69072e-010	-4.67703e-010	-4.66614e-010	-4.65852e-010	
CoarseR20	-6.27402e-010	-5.78788e-010	-5.40531e-010	-5.08247e-010	-4.8071e-010	-4.57208e-010	-4.36812e-010	-4.18956e-010	-4.03586e-010	-3.90043e-010	-3.78191e-010	-3.68143e-010	-3.58991e-010	-3.51534e-010	-3.44775e-010	-3.39247e-010	-3.34291e-010	-3.30231e-010	-3.26822e-010	-3.2392e-010	-3.21824e-010	-3.20124e-010	-3.18693e-010	-3.17758e-010	-3.17468e-010	-3.17367e-010	
CoarseR30	-5.07476e-010	-4.60087e-010	-4.236e-010	-3.92795e-010	-3.66577e-010	-3.44079e-010	-3.24572e-010	-3.07729e-010	-2.93019e-010	-2.80299e-010	-2.69358e-010	-2.6011e-010	-2.51917e-010	-2.44947e-010	-2.38795e-010	-2.33718e-010	-2.2934e-010	-2.25894e-010	-2.22983e-010	-2.20865e-010	-2.19302e-010	-2.18279e-010	-2.17719e-010	-2.1746e-010	-2.17954e-010	-2.18874e-010	
CoarseR40	-4.18566e-010	-3.72e-010	-3.3711e-010	-3.07497e-010	-2.82154e-010	-2.60601e-010	-2.41977e-010	-2.25985e-010	-2.1213e-010	-2.00262e-010	-1.89914e-010	-1.80901e-010	-1.73394e-010	-1.67091e-010	-1.61799e-010	-1.57067e-010	-1.53378e-010	-1.50453e-010	-1.48403e-010	-1.46729e-010	-1.4597e-010	-1.45673e-010	-1.45928e-010	-1.4696e-010	-1.48206e-010	-1.50265e-010	
CoarseR50	-3.49357e-010	-3.04096e-010	-2.70572e-010	-2.41708e-010	-2.17216e-010	-1.96485e-010	-1.78649e-010	-1.6329e-010	-1.50237e-010	-1.38713e-010	-1.29001e-010	-1.20798e-010	-1.13779e-010	-1.07927e-010	-1.03143e-010	-9.9221e-011	-9.60242e-011	-9.40696e-011	-9.26533e-011	-9.16769e-011	-9.18922e-011	-9.25582e-011	-9.39395e-011	-9.57617e-011	-9.85077e-011	-1.01768e-010	
CoarseR60	-2.93447e-010	-2.49247e-010	-2.16459e-010	-1.88736e-010	-1.65016e-010	-1.45225e-010	-1.2781e-010	-1.13031e-010	-1.00626e-010	-8.9685e-011	-8.04203e-011	-7.28395e-011	-6.64506e-011	-6.1081e-011	-5.67661e-011	-5.36609e-011	-5.12918e-011	-4.97963e-011	-4.92024e-011	-4.93485e-011	-5.04381e-011	-5.21972e-011	-5.47453e-011	-5.81594e-011	-6.26521e-011	-6.81339e-011	
CoarseR70	-2.4726e-010	-2.04288e-010	-1.7247e-010	-1.4538e-010	-1.22386e-010	-1.0313e-010	-8.62856e-011	-7.2106e-011	-6.00896e-011	-4.95962e-011	-4.11182e-011	-3.38042e-011	-2.80647e-011	-2.33351e-011	-1.96336e-011	-1.71882e-011	-1.54511e-011	-1.47727e-011	-1.52114e-011	-1.63385e-011	-1.87371e-011	-2.18243e-011	-2.63118e-011	-3.18006e-011	-3.98141e-011	-4.79838e-011	
CoarseR80	-2.0849e-010	-1.66286e-010	-1.35221e-010	-1.08865e-010	-8.65365e-011	-6.76781e-011	-5.13664e-011	-3.77559e-011	-2.61683e-011	-1.62502e-011	-8.03846e-012	-1.52983e-012	3.94768e-012	7.86885e-012	1.09124e-011	1.28703e-011	1.35961e-011	1.32481e-011	1.19906e-011	9.6764e-012	5.81106e-012	5.9305e-013	-7.53321e-012	-1.60114e-011	-2.46153e-011	-3.3021e-011	
CoarseR90	-1.7545e-010	-1.34177e-010	-1.03591e-010	-7.78749e-011	-5.59384e-011	-3.76084e-011	-2.18392e-011	-8.46971e-012	2.69569e-012	1.21767e-011	1.96081e-011	2.60227e-011	3.08643e-011	3.41273e-011	3.64749e-011	3.75946e-011	3.74826e-011	3.61156e-011	3.35323e-011	2.93437e-011	2.28105e-011	1.38209e-011	5.0598e-012	-3.61464e-012	-1.19927e-011	-1.98952e-011	
CoarseR100	-1.46414e-010	-1.05926e-010	-7.60758e-011	-5.0688e-011	-2.94239e-011	-1.14467e-011	3.92207e-012	1.6718e-011	2.75098e-011	3.65107e-011	4.36694e-011	4.96212e-011	5.37892e-011	5.67232e-011	5.82509e-011	5.85167e-011	5.73573e-011	5.47737e-011	5.02992e-011	4.25641e-011	3.37541e-011	2.4276e-011	1.54872e-011	7.17436e-012	-6.28985e-013	-7.94081e-012	
CoarseR110	-1.21368e-010	-8.15183e-011	-5.21732e-011	-2.72776e-011	-6.18474e-012	1.14562e-011	2.65934e-011	3.89931e-011	4.95025e-011	5.8072e-011	6.49256e-011	7.02216e-011	7.39036e-011	7.61612e-011	7.67975e-011	7.60081e-011	7.36285e-011	6.9333e-011	6.10128e-011	5.20764e-011	4.24761e-011	3.34201e-011	2.5049e-011	1.71523e-011	9.61994e-012	2.57093e-012	
CoarseR120	-9.90296e-011	-5.98325e-011	-3.07207e-011	-6.14615e-012	1.45989e-011	3.20012e-011	4.65602e-011	5.89026e-011	6.89751e-011	7.70791e-011	8.34718e-011	8.82499e-011	9.14247e-011	9.29944e-011	9.27287e-011	9.08823e-011	8.69491e-011	7.87801e-011	6.93492e-011	5.94757e-011	5.03062e-011	4.16829e-011	3.39365e-011	2.65319e-011	1.94788e-011	1.29521e-011	
CoarseR130	-7.93435e-011	-4.02891e-011	-1.16061e-011	1.26051e-011	3.30065e-011	5.00373e-011	6.45502e-011	7.64563e-011	8.62508e-011	9.40578e-011	1.0014e-010	1.04228e-010	1.06686e-010	1.07542e-010	1.06388e-010	1.03144e-010	9.57645e-011	8.6171e-011	7.63494e-011	6.70894e-011	5.82012e-011	5.0061e-011	4.22702e-011	3.51995e-011	2.84842e-011	2.23095e-011	
CoarseR140	-6.14752e-011	-2.29746e-011	5.31723e-012	2.94163e-011	4.96357e-011	6.6255e-011	8.05446e-011	9.23568e-011	1.0166e-010	1.09174e-010	1.14758e-010	1.18498e-010	1.20409e-010	1.20359e-010	1.1816e-010	1.11963e-010	1.02533e-010	9.23916e-011	8.28645e-011	7.39221e-011	6.5525e-011	5.77194e-011	5.04613e-011	4.35817e-011	3.70653e-011	3.11169e-011	
CoarseR150	-4.54027e-011	-7.23234e-012	2.0968e-011	4.46897e-011	6.47225e-011	8.13047e-011	9.55136e-011	1.06883e-010	1.16068e-010	1.23439e-010	1.28305e-010	1.31691e-010	1.32906e-010	1.31583e-010	1.27806e-010	1.18485e-010	1.08351e-010	9.84973e-011	8.94747e-011	8.08614e-011	7.28463e-011	6.52249e-011	5.8164e-011	5.1297e-011	4.53914e-011	3.96626e-011	
CoarseR160	-3.08849e-011	7.05966e-012	3.51102e-011	5.86855e-011	7.86708e-011	9.50055e-011	1.08798e-010	1.20059e-010	1.29132e-010	1.35785e-010	1.40498e-010	1.43163e-010	1.43638e-010	1.41609e-010	1.34306e-010	1.24225e-010	1.13751e-010	1.04641e-010	9.57737e-011	8.75354e-011	7.97026e-011	7.24697e-011	6.56466e-011	5.91903e-011	5.3165e-011	4.75009e-011	
CoarseR170	-1.7222e-011	2.02359e-011	4.79839e-011	7.15638e-011	9.13109e-011	1.07597e-010	1.21308e-010	1.32441e-010	1.41201e-010	1.47707e-010	1.52058e-010	1.53991e-010	1.53372e-010	1.49462e-010	1.40145e-010	1.29503e-010	1.19722e-010	1.10382e-010	1.01946e-010	9.3896e-011	8.64838e-011	7.94717e-011	7.28853e-011	6.66891e-011	6.08832e-011	5.53084e-011	
CoarseR180	-5.13985e-012	3.2276e-011	5.99944e-011	8.33394e-011	1.02901e-010	1.1932e-010	1.32737e-010	1.4354e-010	1.51965e-010	1.58329e-010	1.62141e-010	1.63329e-010	1.62176e-010	1.55211e-010	1.4512e-010	1.34851e-010	1.25263e-010	1.16559e-010	1.08108e-010	1.003e-010	9.31185e-011	8.61718e-011	7.98341e-011	7.37127e-011	6.81804e-011	6.29008e-011	
CoarseR190	5.87889e-012	4.31474e-011	7.0884e-011	9.40791e-011	1.13599e-010	1.29735e-010	1.4323e-010	1.53944e-010	1.62426e-010	1.68224e-010	1.71679e-010	1.72315e-010	1.69734e-010	1.60725e-010	1.50069e-010	1.40171e-010	1.30793e-010	1.22116e-010	1.14102e-010	1.06553e-010	9.96143e-011	9.29177e-011	8.64817e-011	8.08233e-011	7.52053e-011	7.00123e-011	
CoarseR200	1.63097e-011	5.3496e-011	8.10778e-011	1.04291e-010	1.23719e-010	1.39961e-010	1.53132e-010	1.63756e-010	1.7188e-010	1.7755e-010	1.80228e-010	1.80512e-010	1.75127e-010	1.65407e-010	1.55104e-010	1.45437e-010	1.36274e-010	1.27837e-010	1.20263e-010	1.12763e-010	1.05932e-010	9.91392e-011	9.31542e-011	8.74305e-011	8.20963e-011	7.70095e-011	
CoarseR210	2.55576e-011	6.26279e-011	9.04588e-011	1.13591e-010	1.3297e-010	1.4915e-010	1.62257e-010	1.72891e-010	1.80678e-010	1.85998e-010	1.88502e-010	1.87736e-010	1.80398e-010	1.70106e-010	1.59852e-010	1.50393e-010	1.41907e-010	1.33512e-010	1.25994e-010	1.18592e-010	1.12027e-010	1.05506e-010	9.9657e-011	9.38626e-011	8.88212e-011	8.38697e-011	
CoarseR220	3.42661e-011	7.15158e-011	9.89665e-011	1.22111e-010	1.41651e-010	1.57719e-010	1.70893e-010	1.81253e-010	1.88875e-010	1.93999e-010	1.95991e-010	1.9429e-010	1.85075e-010	1.74897e-010	1.64888e-010	1.55893e-010	1.47224e-010	1.39111e-010	1.31693e-010	1.24783e-010	1.18121e-010	1.1172e-010	1.05967e-010	1.00275e-010	9.51786e-011	9.05013e-011	
CoarseR230	4.20965e-011	7.92167e-011	1.06887e-010	1.30159e-010	1.49641e-010	1.65637e-010	1.7888e-010	1.89088e-010	1.96759e-010	2.01335e-010	2.03003e-010	1.99512e-010	1.89518e-010	1.79555e-010	1.69819e-010	1.60842e-010	1.52507e-010	1.44669e-010	1.37112e-010	1.30304e-010	1.23748e-010	1.17688e-010	1.12037e-010	1.06647e-010	1.01501e-010	9.67757e-011	
CoarseR240	4.96576e-011	8.67025e-011	1.14317e-010	1.37592e-010	1.57157e-010	1.73276e-010	1.86238e-010	1.96456e-010	2.03781e-010	2.08424e-010	2.09491e-010	2.04231e-010	1.94019e-010	1.84086e-010	1.74807e-010	1.65986e-010	1.57663e-010	1.49936e-010	1.42707e-010	1.36183e-010	1.29723e-010	1.23552e-010	1.17865e-010	1.12818e-010	1.07592e-010	1.02847e-010	
CoarseR250	5.63193e-011	9.35945e-011	1.2126e-010	1.44435e-010	1.64157e-010	1.80157e-010	1.93364e-010	2.03295e-010	2.10897e-010	2.15005e-010	2.15709e-010	2.09176e-010	1.98584e-010	1.89122e-010	1.79714e-010	1.70942e-010	1.62744e-010	1.55294e-010	1.48192e-010	1.41569e-010	1.35442e-010	1.29397e-010	1.2384e-010	1.18714e-010	1.13839e-010	1.09218e-010	
MinCout:	5.9305e-013	CoarseR:	80	CoarseC:	210

	CoarseC40	CoarseC41	CoarseC42	CoarseC43	CoarseC44	CoarseC45	CoarseC46	CoarseC47	CoarseC48	CoarseC49	CoarseC50	CoarseC51	CoarseC52	CoarseC53	CoarseC54	CoarseC55	CoarseC56	CoarseC57	CoarseC58	CoarseC59	CoarseC60	
CoarseR100	-2.94239e-011	-2.74213e-011	-2.5437e-011	-2.37898e-011	-2.17536e-011	-1.99341e-011	-1.8134e-011	-1.64543e-011	-1.47955e-011	-1.31344e-011	-1.13033e-011	-9.63766e-012	-7.99202e-012	-6.61594e-012	-5.11492e-012	-3.60931e-012	-1.95449e-012	-4.26302e-013	1.06563e-012	2.5765e-012	3.92207e-012	
CoarseR101	-2.70588e-011	-2.5056e-011	-2.3072e-011	-2.14252e-011	-1.93889e-011	-1.75695e-011	-1.57465e-011	-1.38971e-011	-1.22638e-011	-1.07257e-011	-9.06337e-012	-7.3987e-012	-5.58346e-012	-4.08571e-012	-2.5629e-012	-1.2285e-012	4.24933e-013	1.9532e-012	3.44387e-012	4.93281e-012	6.27752e-012	
CoarseR102	-2.44836e-011	-2.24811e-011	-2.04977e-011	-1.88518e-011	-1.68657e-011	-1.51891e-011	-1.33676e-011	-1.17122e-011	-9.83819e-012	-8.20297e-012	-6.54079e-012	-4.85352e-012	-3.20951e-012	-1.689e-012	-1.86733e-013	1.31525e-012	2.99073e-012	4.32839e-012	5.98657e-012	7.32871e-012	8.65148e-012	
CoarseR103	-2.19212e-011	-2.02536e-011	-1.81045e-011	-1.62639e-011	-1.44474e-011	-1.27974e-011	-1.08065e-011	-9.12677e-012	-7.46979e-012	-5.81137e-012	-4.1257e-012	-2.46243e-012	-6.50177e-013	7.24025e-013	2.20065e-012	3.55575e-012	5.20838e-012	6.71405e-012	8.20298e-012	9.71315e-012	1.1056e-011	
CoarseR104	-1.95132e-011	-1.7677e-011	-1.57212e-011	-1.40257e-011	-1.20403e-011	-1.03907e-011	-8.37489e-012	-6.72067e-012	-5.06407e-012	-3.55204e-012	-1.72202e-012	-5.87654e-014	1.60681e-012	3.10358e-012	4.60471e-012	6.15062e-012	7.78064e-012	9.11728e-012	1.06021e-011	1.19641e-011	1.3454e-011	
CoarseR105	-1.7139e-011	-1.54477e-011	-1.34659e-011	-1.16276e-011	-9.61668e-012	-7.96791e-012	-6.1472e-012	-4.49363e-012	-2.83768e-012	-1.15576e-012	5.04783e-013	2.31381e-012	3.97918e-012	5.35215e-012	6.85072e-012	8.35078e-012	9.85533e-012	1.13604e-011	1.30165e-011	1.43568e-011	1.56772e-011	
CoarseR106	-1.50382e-011	-1.32308e-011	-1.10793e-011	-9.38492e-012	-7.56921e-012	-5.75131e-012	-3.90585e-012	-2.22882e-012	-4.27709e-013	1.25378e-012	2.74302e-012	4.42858e-012	6.06959e-012	7.56572e-012	9.08814e-012	1.05886e-011	1.22395e-011	1.35749e-011	1.50807e-011	1.64188e-011	1.77383e-011	
CoarseR107	-1.28085e-011	-1.09483e-011	-8.82376e-012	-7.15568e-012	-5.28997e-012	-3.64252e-012	-1.84685e-012	0	1.65494e-012	3.18921e-012	4.97129e-012	6.65678e-012	8.29741e-012	9.64582e-012	1.11439e-011	1.26659e-011	1.43159e-011	1.56505e-011	1.73281e-011	1.84945e-011	2.01764e-011	
CoarseR108	-1.05396e-011	-8.67977e-012	-6.69987e-012	-4.88718e-012	-2.90247e-012	-1.23049e-012	6.14003e-013	2.26566e-012	3.91974e-012	5.42968e-012	7.25861e-012	8.91951e-012	1.05592e-011	1.19066e-011	1.34041e-011	1.49255e-011	1.65745e-011	1.79313e-011	1.95852e-011	2.09235e-011	2.22415e-011	
CoarseR109	-8.25761e-012	-6.44999e-012	-4.44469e-012	-2.63251e-012	-9.63452e-013	8.53592e-013	2.67234e-012	4.49448e-012	6.19626e-012	7.65795e-012	9.34029e-012	1.11715e-011	1.28106e-011	1.41573e-011	1.56547e-011	1.71757e-011	1.88242e-011	2.01576e-011	2.16614e-011	2.29965e-011	2.43136e-011	
CoarseR110	-6.15882e-012	-4.32595e-012	-2.20351e-012	-5.10007e-013	1.27779e-012	3.11948e-012	4.76763e-012	6.58937e-012	8.26701e-012	9.77597e-012	1.14334e-011	1.32642e-011	1.49264e-011	1.62721e-011	1.77453e-011	1.92658e-011	2.09135e-011	2.22694e-011	2.39016e-011	2.52593e-011	2.65735e-011	
CoarseR111	-3.90515e-012	-2.07222e-012	-9.38059e-014	1.57215e-012	3.41115e-012	5.22607e-012	7.04517e-012	8.69527e-012	1.05193e-011	1.2028e-011	1.3685e-011	1.51975e-011	1.70065e-011	1.83512e-011	2.00197e-011	2.15399e-011	2.30158e-011	2.43466e-011	2.60219e-011	2.73353e-011	2.86709e-011	
CoarseR112	-1.78538e-012	4.72618e-014	2.02499e-012	3.86222e-012	5.67605e-012	7.34481e-012	9.13937e-012	1.08124e-011	1.26358e-011	1.41437e-011	1.57999e-011	1.7483e-011	1.91439e-011	2.06138e-011	2.21316e-011	2.34584e-011	2.51049e-011	2.6608e-011	2.79386e-011	2.94461e-011	3.07807e-011	
CoarseR113	4.95624e-013	2.18157e-012	4.30556e-012	5.99543e-012	7.80876e-012	9.45246e-012	1.1465e-011	1.31136e-011	1.47659e-011	1.64442e-011	1.80999e-011	1.95865e-011	2.12251e-011	2.27406e-011	2.42578e-011	2.55838e-011	2.72295e-011	2.85603e-011	3.00618e-011	3.15652e-011	3.2883e-011	
CoarseR114	2.4654e-012	4.27108e-012	6.24892e-012	7.91216e-012	9.72539e-012	1.15651e-011	1.32106e-011	1.5031e-011	1.66816e-011	1.81886e-011	1.98437e-011	2.16736e-011	2.33119e-011	2.46794e-011	2.61962e-011	2.7694e-011	2.91664e-011	3.05167e-011	3.21465e-011	3.33277e-011	3.4813e-011	
CoarseR115	4.54007e-012	6.0556e-012	8.23069e-012	9.86805e-012	1.16807e-011	1.35195e-011	1.53373e-011	1.70101e-011	1.86597e-011	2.03371e-011	2.18201e-011	2.34548e-011	2.53085e-011	2.66289e-011	2.81206e-011	2.96424e-011	3.11141e-011	3.24431e-011	3.41164e-011	3.54265e-011	3.69547e-011	
CoarseR116	6.53585e-012	8.36776e-012	1.03432e-011	1.22043e-011	1.38434e-011	1.56582e-011	1.74755e-011	1.91454e-011	2.082e-011	2.22776e-011	2.41046e-011	2.56145e-011	2.7248e-011	2.87619e-011	3.01047e-011	3.16014e-011	3.32448e-011	3.44248e-011	3.6073e-011	3.74055e-011	3.88907e-011	
CoarseR117	8.65632e-012	1.0145e-011	1.22931e-011	1.39559e-011	1.57943e-011	1.76324e-011	1.92756e-011	2.10948e-011	2.27431e-011	2.42483e-011	2.59013e-011	2.77301e-011	2.92161e-011	3.05349e-011	3.20252e-011	3.35422e-011	3.51645e-011	3.65372e-011	3.80114e-011	3.93439e-011	4.08708e-011	
CoarseR118	1.06196e-011	1.24511e-011	1.44253e-011	1.60878e-011	1.79234e-011	1.9764e-011	2.13805e-011	2.30286e-011	2.47025e-011	2.63785e-011	2.78595e-011	2.9688e-011	3.11733e-011	3.28373e-011	3.41786e-011	3.55224e-011	3.7144e-011	3.84912e-011	3.99892e-011	4.13208e-011	4.2804e-011	
CoarseR119	1.24196e-011	1.42756e-011	1.62488e-011	1.80844e-011	1.98955e-011	2.15586e-011	2.33745e-011	2.5019e-011	2.68662e-011	2.83701e-011	3.00218e-011	3.1504e-011	3.31394e-011	3.46517e-011	3.61199e-011	3.74624e-011	3.89555e-011	4.04558e-011	4.19284e-011	4.32596e-011	4.47856e-011	
CoarseR120	1.45989e-011	1.64296e-011	1.84024e-011	2.00677e-011	2.18783e-011	2.35406e-011	2.5356e-011	2.69999e-011	2.88468e-011	3.03502e-011	3.20012e-011	3.34827e-011	3.51175e-011	3.66293e-011	3.81428e-011	3.94386e-011	4.0931e-011	4.24505e-011	4.37287e-011	4.52522e-011	4.65602e-011	
MinCout:	0	CoarseR:	107	CoarseC:	47

	FineC0	FineC10	FineC20	FineC30	FineC40	FineC50	FineC60	FineC70	FineC80	FineC90	FineC100	FineC110	FineC120	FineC130	FineC140	FineC150	FineC160	FineC170	FineC180	FineC190	FineC200	FineC210	FineC220	FineC230	FineC240	FineC250	
FineR0	-1.41286e-010	-1.12982e-010	-9.55398e-011	-8.30068e-011	-7.33932e-011	-6.57556e-011	-5.96762e-011	-5.47983e-011	-5.06915e-011	-4.71965e-011	-4.41478e-011	-4.15244e-011	-3.92574e-011	-3.72746e-011	-3.55855e-011	-3.39133e-011	-3.2536e-011	-3.13018e-011	-3.02359e-011	-2.91924e-011	-2.82532e-011	-2.73568e-011	-2.65863e-011	-2.58149e-011	-2.51893e-011	-2.45914e-011	
FineR10	-1.24321e-010	-9.62192e-011	-7.92445e-011	-6.6555e-011	-5.70882e-011	-4.94559e-011	-4.35427e-011	-3.86756e-011	-3.44299e-011	-3.10792e-011	-2.80096e-011	-2.54135e-011	-2.32936e-011	-2.11482e-011	-1.94828e-011	-1.79615e-011	-1.65856e-011	-1.53752e-011	-1.41435e-011	-1.30567e-011	-1.21627e-011	-1.14154e-011	-1.04744e-011	-9.89503e-012	-9.2745e-012	-8.48155e-012	
FineR20	-1.16947e-010	-8.898e-011	-7.18494e-011	-5.93307e-011	-4.98709e-011	-4.22691e-011	-3.63336e-011	-3.1466e-011	-2.73686e-011	-2.38296e-011	-2.09555e-011	-1.8388e-011	-1.61015e-011	-1.41023e-011	-1.24619e-011	-1.07735e-011	-9.39696e-012	-8.16812e-012	-7.10628e-012	-5.87357e-012	-4.9575e-012	-4.18735e-012	-3.44128e-012	-2.69405e-012	-1.90189e-012	-1.45033e-012	
FineR30	-1.12764e-010	-8.47843e-011	-6.77851e-011	-5.51056e-011	-4.56516e-011	-3.81943e-011	-3.22891e-011	-2.74251e-011	-2.31376e-011	-1.98185e-011	-1.67537e-011	-1.41624e-011	-1.19033e-011	-9.92882e-012	-8.26699e-012	-6.74854e-012	-5.37474e-012	-4.14506e-012	-2.9149e-012	-1.85221e-012	-9.36947e-013	-2.14566e-013	7.47544e-013	1.49446e-012	1.92279e-012	2.7373e-012	
FineR40	-1.1006e-010	-8.2081e-011	-6.48909e-011	-5.25494e-011	-4.29326e-011	-3.53402e-011	-2.94117e-011	-2.455e-011	-2.06262e-011	-1.69471e-011	-1.40769e-011	-1.1656e-011	-9.20402e-012	-7.23222e-012	-5.57158e-012	-4.03037e-012	-2.53322e-012	-1.45189e-012	-2.2244e-013	8.39158e-013	1.75376e-012	2.49793e-012	3.43735e-012	4.18383e-012	4.63351e-012	5.42577e-012	
FineR50	-1.0795e-010	-8.01376e-011	-6.2953e-011	-5.06154e-011	-4.10289e-011	-3.35777e-011	-2.78211e-011	-2.28179e-011	-1.86756e-011	-1.51933e-011	-1.21294e-011	-9.56605e-012	-7.28433e-012	-5.28877e-012	-3.62912e-012	-2.11249e-012	-7.63303e-013	6.34827e-013	1.69419e-012	2.75385e-012	3.49818e-012	4.43589e-012	5.18089e-012	5.92706e-012	6.71858e-012	7.16842e-012	
FineR60	-1.06745e-010	-7.87711e-011	-6.15907e-011	-4.92228e-011	-3.96723e-011	-3.22229e-011	-2.62698e-011	-2.14383e-011	-1.71554e-011	-1.36738e-011	-1.07803e-011	-8.36189e-012	-6.10645e-012	-3.79608e-012	-2.28305e-012	-7.67066e-013	7.52384e-013	1.97921e-012	3.03805e-012	4.12169e-012	4.99011e-012	5.77849e-012	6.52323e-012	7.29107e-012	8.08227e-012	8.51001e-012	
FineR70	-1.05595e-010	-7.76251e-011	-6.06163e-011	-4.81149e-011	-3.85048e-011	-3.10541e-011	-2.51347e-011	-2.02757e-011	-1.61871e-011	-1.28499e-011	-9.81401e-012	-7.22699e-012	-4.92321e-012	-2.97752e-012	-1.14906e-012	3.90198e-013	1.7383e-012	3.1126e-012	4.1712e-012	5.08318e-012	5.9965e-012	6.93396e-012	7.67857e-012	8.44622e-012	9.19302e-012	9.64238e-012	
FineR80	-1.04803e-010	-7.70071e-011	-5.98324e-011	-4.73332e-011	-3.7721e-011	-3.02757e-011	-2.43546e-011	-1.94993e-011	-1.54115e-011	-1.17367e-011	-8.87071e-012	-6.42891e-012	-4.0047e-012	-2.1808e-012	-3.52844e-013	1.1388e-012	2.51016e-012	3.90718e-012	4.96527e-012	5.85427e-012	6.93759e-012	7.68181e-012	8.44837e-012	9.19393e-012	9.98504e-012	1.04341e-011	
FineR90	-1.04045e-010	-7.62513e-011	-5.90778e-011	-4.6546e-011	-3.69402e-011	-2.94962e-011	-2.35737e-011	-1.87198e-011	-1.466e-011	-1.13239e-011	-8.26407e-012	-5.70249e-012	-3.39931e-012	-1.43006e-012	3.97636e-013	1.91262e-012	3.28362e-012	4.31593e-012	5.71527e-012	6.6036e-012	7.53959e-012	8.25971e-012	9.19812e-012	9.9883e-012	1.03921e-011	1.11838e-011	
FineR100	-1.03456e-010	-7.56557e-011	-5.84853e-011	-4.61251e-011	-3.65489e-011	-2.89092e-011	-2.30166e-011	-1.81626e-011	-1.40759e-011	-1.05706e-011	-7.65559e-012	-5.09566e-012	-2.81744e-012	-8.72821e-013	9.78744e-013	2.49341e-012	3.69396e-012	4.89616e-012	6.12392e-012	7.18408e-012	8.09689e-012	9.01105e-012	9.77742e-012	1.05675e-011	1.09711e-011	1.17627e-011	
FineR110	-1.02889e-010	-7.50923e-011	-5.78932e-011	-4.55917e-011	-3.59876e-011	-2.85451e-011	-2.25974e-011	-1.7745e-011	-1.36596e-011	-9.98673e-012	-7.29168e-012	-4.70672e-012	-2.45364e-012	-4.60792e-013	1.3664e-012	2.90437e-012	4.25103e-012	5.45443e-012	6.68228e-012	7.59267e-012	8.50593e-012	9.41976e-012	1.01859e-011	1.0931e-011	1.15514e-011	1.21705e-011	
FineR120	-1.02526e-010	-7.46888e-011	-5.76921e-011	-4.51707e-011	-3.55962e-011	-2.83202e-011	-2.20375e-011	-1.71853e-011	-1.31002e-011	-9.76612e-012	-6.73275e-012	-4.14797e-012	-2.04055e-012	-7.25099e-014	1.58412e-012	3.12171e-012	4.63942e-012	5.84136e-012	6.92133e-012	8.12816e-012	9.04069e-012	9.80577e-012	1.05497e-011	1.11462e-011	1.19369e-011	1.25344e-011	
FineR130	-1.02129e-010	-7.4333e-011	-5.72985e-011	-4.48069e-011	-3.53694e-011	-2.78992e-011	-2.18401e-011	-1.69886e-011	-1.2709e-011	-9.40181e-012	-6.36839e-012	-3.92844e-012	-1.65153e-012	2.91923e-013	1.97259e-012	3.63293e-012	4.85616e-012	6.22948e-012	7.43353e-012	8.36696e-012	9.25676e-012	1.01704e-011	1.09363e-011	1.17044e-011	1.23016e-011	1.29206e-011	
FineR140	-1.01878e-010	-7.40992e-011	-5.69347e-011	-4.44096e-011	-3.50053e-011	-2.75349e-011	-2.14493e-011	-1.66242e-011	-1.25127e-011	-9.0373e-012	-6.12247e-012	-3.5388e-012	-1.28691e-012	7.04938e-013	2.36107e-012	3.87472e-012	5.22085e-012	6.59356e-012	7.50268e-012	8.73174e-012	9.64384e-012	1.05805e-011	1.13012e-011	1.2091e-011	1.26894e-011	1.32855e-011	
FineR150	-1.01684e-010	-7.37355e-011	-5.67041e-011	-4.44074e-011	-3.46374e-011	-2.71406e-011	-2.12523e-011	-1.64017e-011	-1.2318e-011	-8.81513e-012	-5.92717e-012	-3.36882e-012	-8.97555e-013	8.99466e-013	2.70186e-012	4.23916e-012	5.60893e-012	6.81018e-012	7.86679e-012	8.92533e-012	1.00078e-011	1.07503e-011	1.15176e-011	1.21121e-011	1.29025e-011	1.36721e-011	
FineR160	-1.01513e-010	-7.35258e-011	-5.63644e-011	-4.40053e-011	-3.44075e-011	-2.7e-011	-2.10552e-011	-1.60354e-011	-1.2095e-011	-8.61941e-012	-5.56175e-012	-3.14869e-012	-8.97061e-013	1.0941e-012	2.92006e-012	4.26266e-012	5.77922e-012	7.00412e-012	8.23101e-012	9.31287e-012	1.02013e-011	1.09438e-011	1.18815e-011	1.26494e-011	1.3074e-011	1.38653e-011	
FineR170	-1.01116e-010	-7.33235e-011	-5.61996e-011	-4.38103e-011	-3.42404e-011	-2.68022e-011	-2.08581e-011	-1.58387e-011	-1.19257e-011	-8.4236e-012	-5.39182e-012	-2.78366e-012	-5.32256e-013	1.43486e-012	3.11456e-012	4.79804e-012	5.99719e-012	7.19814e-012	8.42491e-012	9.4832e-012	1.0395e-011	1.11374e-011	1.2075e-011	1.28415e-011	1.3289e-011	1.40585e-011	
FineR180	-1.00946e-010	-7.31211e-011	-5.61322e-011	-4.36453e-011	-3.40104e-011	-2.65745e-011	-2.06609e-011	-1.56681e-011	-1.17026e-011	-8.08439e-012	-5.17072e-012	-2.75826e-012	-3.37256e-013	1.65377e-012	3.30914e-012	4.99246e-012	6.16759e-012	7.36851e-012	8.61888e-012	9.67704e-012	1.05887e-011	1.13298e-011	1.22685e-011	1.3035e-011	1.34824e-011	1.42289e-011	
FineR190	-1.00776e-010	-7.31197e-011	-5.59616e-011	-4.34413e-011	-3.40093e-011	-2.64038e-011	-2.04615e-011	-1.56413e-011	-1.1532e-011	-7.88845e-012	-5.1958e-012	-2.56292e-012	-1.42176e-013	1.82427e-012	3.47962e-012	4.99259e-012	6.3619e-012	7.75679e-012	8.79027e-012	9.87096e-012	1.07825e-011	1.16954e-011	1.24608e-011	1.32054e-011	1.38251e-011	1.44437e-011	
FineR200	-1.00695e-010	-7.27568e-011	-5.55984e-011	-4.32416e-011	-3.36456e-011	-2.62069e-011	-2.02908e-011	-1.52753e-011	-1.11932e-011	-7.86172e-012	-4.80545e-012	-2.22283e-012	-1.17274e-013	1.82454e-012	3.67391e-012	5.21058e-012	6.55556e-012	7.95102e-012	9.00703e-012	1.00414e-011	1.0953e-011	1.18892e-011	1.26545e-011	1.32283e-011	1.39955e-011	1.46142e-011	
FineR210	-1.00367e-010	-7.27161e-011	-5.55612e-011	-4.30765e-011	-3.34434e-011	-2.60088e-011	-2.01231e-011	-1.52484e-011	-1.11656e-011	-7.69107e-012	-4.63479e-012	-2.05219e-012	2.47798e-013	2.18973e-012	3.86885e-012	5.55189e-012	6.92099e-012	7.95112e-012	9.17755e-012	1.02355e-011	1.1147e-011	1.18891e-011	1.26544e-011	1.35928e-011	1.4017e-011	1.47864e-011	
FineR220	-1.00355e-010	-7.25381e-011	-5.53904e-011	-4.28724e-011	-3.34422e-011	-2.60078e-011	-2.00934e-011	-1.50761e-011	-1.11649e-011	-7.49562e-012	-4.60869e-012	-2.0267e-012	2.48145e-013	2.21419e-012	4.03899e-012	5.55212e-012	6.9204e-012	8.12156e-012	9.2003e-012	1.02355e-011	1.11469e-011	1.20831e-011	1.28483e-011	1.35927e-011	1.42106e-011	1.50014e-011	
FineR230	-1.00162e-010	-7.23836e-011	-5.52267e-011	-4.2871e-011	-3.32759e-011	-2.58108e-011	-1.97558e-011	-1.49077e-011	-1.0826e-011	-7.49496e-012	-4.43898e-012	-1.85666e-012	2.48572e-013	2.55506e-012	4.03928e-012	5.57581e-012	6.92058e-012	8.31593e-012	9.37178e-012	1.04285e-011	1.13397e-011	1.22536e-011	1.28482e-011	1.36143e-011	1.44044e-011	1.49782e-011	
FineR240	-1.0015e-010	-7.23747e-011	-5.52197e-011	-4.27016e-011	-3.32714e-011	-2.5807e-011	-1.97261e-011	-1.48791e-011	-1.07984e-011	-7.29947e-012	-4.43799e-012	-1.85601e-012	6.13672e-013	2.57923e-012	4.21009e-012	5.74618e-012	7.11493e-012	8.33899e-012	9.54134e-012	1.06001e-011	1.15115e-011	1.24242e-011	1.31895e-011	1.39571e-011	1.44043e-011	1.5172e-011	
FineR250	-9.99911e-011	-7.21736e-011	-5.50201e-011	-4.26669e-011	-3.31051e-011	-2.54702e-011	-1.96964e-011	-1.47107e-011	-1.06026e-011	-7.12803e-012	-4.24272e-012	-1.66095e-012	6.14027e-013	2.57963e-012	4.42827e-012	5.91683e-012	7.30873e-012	8.48655e-012	9.71289e-012	1.06227e-011	1.15338e-011	1.24463e-011	1.31894e-011	1.39788e-011	1.47456e-011	1.51719e-011	
MinCout:	-7.25099e-014	FineR:	120	FineC:	130

	FineC120	FineC121	FineC122	FineC123	FineC124	FineC125	FineC126	FineC127	FineC128	FineC129	FineC130	FineC131	FineC132	FineC133	FineC134	FineC135	FineC136	FineC137	FineC138	FineC139	FineC140	
FineR120	-2.04033e-012	-1.89482e-012	-1.74925e-012	-1.43355e-012	-1.28788e-012	-1.14216e-012	-8.26279e-013	-6.80446e-013	-3.88626e-013	-2.18469e-013	-7.25099e-014	9.76825e-014	2.19632e-013	5.35927e-013	7.06157e-013	8.5238e-013	9.98655e-013	1.31513e-012	1.46152e-012	1.46152e-012	1.58412e-012	
FineR121	-2.01596e-012	-1.70039e-012	-1.55484e-012	-1.40924e-012	-1.28788e-012	-9.72168e-013	-8.26279e-013	-6.80446e-013	-3.64436e-013	-2.18503e-013	-7.25099e-014	7.35352e-014	3.89773e-013	5.35927e-013	6.82133e-013	8.28391e-013	1.14486e-012	1.31526e-012	1.29123e-012	1.43765e-012	1.7543e-012	
FineR122	-1.87046e-012	-1.72493e-012	-1.55484e-012	-1.43371e-012	-1.0935e-012	-9.47789e-013	-8.02028e-013	-4.86105e-013	-3.64445e-013	-2.18503e-013	1.21789e-013	2.6782e-013	4.13902e-013	5.60037e-013	8.76375e-013	1.02262e-012	1.16891e-012	1.31526e-012	1.29123e-012	1.63183e-012	1.7543e-012	
FineR123	-1.87046e-012	-1.72493e-012	-1.40924e-012	-1.2636e-012	-1.0935e-012	-9.47789e-013	-6.56247e-013	-5.10395e-013	-3.64491e-013	-1.94313e-013	1.21789e-013	2.6782e-013	4.13902e-013	7.30183e-013	8.76375e-013	1.02262e-012	1.02262e-012	1.33908e-012	1.48543e-012	1.63183e-012	1.77829e-012	
FineR124	-1.84608e-012	-1.53047e-012	-1.3849e-012	-1.23929e-012	-9.235e-013	-8.02048e-013	-6.31991e-013	-5.10395e-013	-1.70117e-013	-4.83917e-014	9.76217e-014	4.37997e-013	5.84043e-013	7.54293e-013	7.06139e-013	9.98442e-013	1.19278e-012	1.31516e-012	1.48543e-012	1.63183e-012	1.92467e-012	
FineR125	-1.84585e-012	-1.70036e-012	-1.55483e-012	-1.40924e-012	-9.235e-013	-9.47797e-013	-6.31991e-013	-4.86121e-013	-1.94353e-013	-2.41958e-014	1.21798e-013	4.62105e-013	5.841e-013	7.30254e-013	8.76305e-013	1.02254e-012	1.16882e-012	1.31516e-012	1.46154e-012	1.80219e-012	1.94867e-012	
FineR126	-1.82145e-012	-1.70054e-012	-1.38473e-012	-1.23914e-012	-1.09349e-012	-9.47797e-013	-6.31928e-013	-3.16027e-013	-1.70137e-013	1.45947e-013	2.91947e-013	4.37997e-013	4.13842e-013	7.30125e-013	8.76305e-013	1.04663e-012	1.1929e-012	1.5094e-012	1.65577e-012	1.80219e-012	1.97266e-012	
FineR127	-1.84604e-012	-1.53043e-012	-1.38488e-012	-1.23927e-012	-9.23482e-013	-7.77765e-013	-6.07652e-013	-4.61865e-013	0	1.45947e-013	3.16122e-013	2.91947e-013	6.08152e-013	7.54261e-013	9.00421e-013	1.21681e-012	1.36307e-012	1.5094e-012	1.65594e-012	1.80219e-012	2.14286e-012	
FineR128	-1.67594e-012	-1.53043e-012	-1.38488e-012	-1.06915e-012	-9.23482e-013	-7.77765e-013	-6.31996e-013	-2.9174e-013	2.42159e-014	0	2.91923e-013	4.62096e-013	6.08152e-013	7.54261e-013	9.00421e-013	1.21681e-012	1.36307e-012	1.5094e-012	1.67958e-012	1.82596e-012	1.97239e-012	
FineR129	-1.65153e-012	-1.50605e-012	-1.21476e-012	-1.04481e-012	-9.23482e-013	-7.77765e-013	-4.61856e-013	-3.1603e-013	0	1.45936e-013	3.16091e-013	4.62096e-013	6.08152e-013	9.24422e-013	1.04658e-012	1.2409e-012	1.38715e-012	1.70363e-012	1.67958e-012	1.82596e-012	1.97239e-012	
FineR130	-1.65153e-012	-1.33594e-012	-1.1904e-012	-1.04481e-012	-8.9916e-013	-5.83329e-013	-4.37574e-013	-2.91768e-013	0	1.70157e-013	3.16125e-013	4.62144e-013	7.7839e-013	9.24519e-013	1.0707e-012	1.21693e-012	1.55733e-012	1.50933e-012	1.65569e-012	1.82615e-012	2.11879e-012	
FineR131	-1.50599e-012	-1.33607e-012	-1.21489e-012	-8.74683e-013	-7.53431e-013	-5.83329e-013	-4.37574e-013	-1.21622e-013	2.42418e-014	1.70157e-013	3.16125e-013	6.32313e-013	7.7839e-013	9.24519e-013	1.24089e-012	1.38712e-012	1.38712e-012	1.50933e-012	1.67975e-012	1.99636e-012	2.14281e-012	
FineR132	-1.48158e-012	-1.33607e-012	-1.19052e-012	-8.74768e-013	-7.0471e-013	-5.83386e-013	-2.67457e-013	-9.73604e-014	2.42418e-014	1.70157e-013	4.86288e-013	6.32313e-013	7.7839e-013	9.24519e-013	1.24089e-012	1.24089e-012	1.38712e-012	1.53341e-012	1.84996e-012	1.99636e-012	2.14281e-012	
FineR133	-1.48158e-012	-1.50599e-012	-9.9592e-013	-8.74768e-013	-7.29103e-013	-3.88893e-013	-2.67434e-013	-9.73604e-014	1.70172e-013	3.40355e-013	4.86288e-013	6.32382e-013	7.7839e-013	9.48565e-013	1.0947e-012	1.24089e-012	1.38712e-012	1.70361e-012	1.84996e-012	1.99636e-012	2.14281e-012	
FineR134	-1.48134e-012	-1.33586e-012	-1.19033e-012	-1.04475e-012	-8.99116e-013	-5.83282e-013	-2.67457e-013	-2.91745e-013	1.94393e-013	3.40355e-013	5.1049e-013	4.86288e-013	9.72727e-013	9.24501e-013	1.0947e-012	1.24089e-012	1.55732e-012	1.70361e-012	1.87402e-012	2.0204e-012	2.16657e-012	
FineR135	-1.45691e-012	-1.31145e-012	-1.16594e-012	-1.04475e-012	-7.28973e-013	-5.83282e-013	-4.13195e-013	-9.72944e-014	2.18635e-013	1.94393e-013	5.1049e-013	6.3225e-013	8.02482e-013	9.48565e-013	1.26488e-012	1.41107e-012	1.55732e-012	1.70361e-012	1.87402e-012	2.02016e-012	2.16657e-012	
FineR136	-1.45691e-012	-1.31145e-012	-1.16594e-012	-8.50245e-013	-7.04625e-013	-5.58954e-013	-2.43077e-013	-9.7297e-014	1.94419e-013	1.94393e-013	5.10472e-013	6.32319e-013	8.02482e-013	1.0947e-012	1.26502e-012	1.43519e-012	1.55748e-012	1.87401e-012	1.87381e-012	2.02016e-012	2.16657e-012	
FineR137	-1.45691e-012	-1.31145e-012	-9.95812e-013	-8.50245e-013	-7.04625e-013	-3.88806e-013	-2.43077e-013	-9.7297e-014	1.94434e-013	3.64591e-013	5.10533e-013	6.56526e-013	8.02571e-013	1.11886e-012	1.28902e-012	1.41122e-012	1.72769e-012	1.8981e-012	1.84992e-012	2.04422e-012	2.16679e-012	
FineR138	-1.48149e-012	-1.14144e-012	-9.95812e-013	-8.50245e-013	-5.34483e-013	-3.88806e-013	-2.43077e-013	7.28631e-014	2.18701e-013	3.64591e-013	5.10533e-013	6.56526e-013	9.7276e-013	1.11886e-012	1.26502e-012	1.58143e-012	1.5573e-012	1.72751e-012	1.87401e-012	2.1906e-012	2.33702e-012	
FineR139	-1.28679e-012	-1.14133e-012	-9.95812e-013	-6.80108e-013	-5.34483e-013	-3.88806e-013	-2.43077e-013	7.28631e-014	2.18701e-013	3.64591e-013	5.10533e-013	8.26709e-013	9.7276e-013	1.11886e-012	1.26489e-012	1.41107e-012	1.5573e-012	1.70359e-012	2.04423e-012	2.1906e-012	2.33702e-012	
FineR140	-1.28691e-012	-1.14144e-012	-9.95905e-013	-6.5574e-013	-5.34528e-013	-1.9433e-013	-7.29232e-014	7.28631e-014	2.18701e-013	5.34763e-013	6.8071e-013	8.26709e-013	9.7276e-013	1.28906e-012	1.26489e-012	1.41107e-012	1.58143e-012	1.89791e-012	2.04423e-012	2.1906e-012	2.33702e-012	
MinCout:	0	FineR:	127	FineC:	128

