	CoarseC0	CoarseC10	CoarseC20	CoarseC30	CoarseC40	CoarseC50	CoarseC60	CoarseC70	CoarseC80	CoarseC90	CoarseC100	CoarseC110	CoarseC120	CoarseC130	CoarseC140	CoarseC150	CoarseC160	CoarseC170	CoarseC180	CoarseC190	CoarseC200	CoarseC210	CoarseC220	CoarseC230	CoarseC240	CoarseC250	
CoarseR0	-1.07545e-009	-1.03453e-009	-9.9175e-010	-9.54774e-010	-9.22976e-010	-8.95857e-010	-8.72304e-010	-8.5174e-010	-8.34012e-010	-8.18559e-010	-8.0514e-010	-7.92942e-010	-7.82186e-010	-7.72737e-010	-7.64568e-010	-7.57053e-010	-7.50587e-010	-7.44683e-010	-7.39782e-010	-7.35326e-010	-7.31382e-010	-7.27729e-010	-7.24772e-010	-7.22173e-010	-7.19915e-010	-7.18026e-010	
CoarseR10	-8.07518e-010	-7.62227e-010	-7.22831e-010	-6.88231e-010	-6.58894e-010	-6.33698e-010	-6.11501e-010	-5.92593e-010	-5.75708e-010	-5.61038e-010	-5.48253e-010	-5.36759e-010	-5.26682e-010	-5.17588e-010	-5.0983e-010	-5.03003e-010	-4.96938e-010	-4.91959e-010	-4.87389e-010	-4.83753e-010	-4.80418e-010	-4.77846e-010	-4.75582e-010	-4.73664e-010	-4.7231e-010	-4.7119e-010	
CoarseR20	-6.37289e-010	-5.90328e-010	-5.52856e-010	-5.20249e-010	-4.92484e-010	-4.68594e-010	-4.4783e-010	-4.29774e-010	-4.13865e-010	-4.00067e-010	-3.87857e-010	-3.77214e-010	-3.67755e-010	-3.59677e-010	-3.52673e-010	-3.46569e-010	-3.41343e-010	-3.36874e-010	-3.32996e-010	-3.29862e-010	-3.27016e-010	-3.24909e-010	-3.23099e-010	-3.21914e-010	-3.20949e-010	-3.20491e-010	
CoarseR30	-5.15793e-010	-4.70847e-010	-4.34479e-010	-4.03096e-010	-3.76689e-010	-3.5405e-010	-3.34321e-010	-3.1683e-010	-3.0184e-010	-2.88801e-010	-2.77526e-010	-2.67503e-010	-2.59069e-010	-2.51479e-010	-2.44936e-010	-2.39399e-010	-2.34607e-010	-2.30708e-010	-2.27497e-010	-2.24938e-010	-2.22795e-010	-2.21182e-010	-2.20242e-010	-2.19711e-010	-2.19604e-010	-2.19743e-010	
CoarseR40	-4.26641e-010	-3.82295e-010	-3.47162e-010	-3.17077e-010	-2.9179e-010	-2.69868e-010	-2.51053e-010	-2.34473e-010	-2.2036e-010	-2.07948e-010	-1.97201e-010	-1.879e-010	-1.79829e-010	-1.72754e-010	-1.66859e-010	-1.62026e-010	-1.57758e-010	-1.54345e-010	-1.51825e-010	-1.49757e-010	-1.4839e-010	-1.47476e-010	-1.47299e-010	-1.47564e-010	-1.48397e-010	-1.49516e-010	
CoarseR50	-3.57952e-010	-3.14005e-010	-2.79923e-010	-2.5099e-010	-2.26472e-010	-2.05324e-010	-1.8723e-010	-1.71458e-010	-1.57835e-010	-1.4606e-010	-1.35918e-010	-1.26972e-010	-1.19369e-010	-1.131e-010	-1.07694e-010	-1.03328e-010	-9.98494e-011	-9.71006e-011	-9.50679e-011	-9.38007e-011	-9.30441e-011	-9.30895e-011	-9.37185e-011	-9.49198e-011	-9.68668e-011	-9.92406e-011	
CoarseR60	-3.02419e-010	-2.58726e-010	-2.25592e-010	-1.97687e-010	-1.7382e-010	-1.53458e-010	-1.35963e-010	-1.20811e-010	-1.07649e-010	-9.64702e-011	-8.69512e-011	-7.85985e-011	-7.16064e-011	-6.56208e-011	-6.08547e-011	-5.69451e-011	-5.40939e-011	-5.2158e-011	-5.07588e-011	-5.02683e-011	-5.05331e-011	-5.15235e-011	-5.30845e-011	-5.55828e-011	-5.87657e-011	-6.28767e-011	
CoarseR70	-2.55929e-010	-2.13571e-010	-1.81191e-010	-1.5387e-010	-1.30768e-010	-1.11111e-010	-9.41933e-011	-7.94288e-011	-6.68466e-011	-5.60782e-011	-4.6992e-011	-3.90581e-011	-3.26801e-011	-2.73464e-011	-2.30258e-011	-1.99196e-011	-1.75375e-011	-1.62064e-011	-1.58169e-011	-1.6299e-011	-1.73592e-011	-1.96545e-011	-2.25213e-011	-2.65752e-011	-3.25995e-011	-4.0227e-011	
CoarseR80	-2.16803e-010	-1.75365e-010	-1.43707e-010	-1.17253e-010	-9.46887e-011	-7.54081e-011	-5.90231e-011	-4.4808e-011	-3.26176e-011	-2.22714e-011	-1.35879e-011	-6.13363e-012	-3.50666e-013	4.53158e-012	8.24432e-012	1.08605e-011	1.22408e-011	1.29104e-011	1.25048e-011	1.10125e-011	8.47243e-012	5.05049e-012	-2.02909e-013	-8.3602e-012	-1.62804e-011	-2.39265e-011	
CoarseR90	-1.83266e-010	-1.42551e-010	-1.1177e-010	-8.58048e-011	-6.373e-011	-4.4989e-011	-2.89414e-011	-1.52961e-011	-3.51374e-012	6.42619e-012	1.46719e-011	2.15423e-011	2.71859e-011	3.14532e-011	3.44831e-011	3.62944e-011	3.70299e-011	3.68572e-011	3.54307e-011	3.25961e-011	2.82448e-011	2.09693e-011	1.30576e-011	5.10819e-012	-2.91139e-012	-1.08869e-011	
CoarseR100	-1.54502e-010	-1.14618e-010	-8.42843e-011	-5.88478e-011	-3.71544e-011	-1.89008e-011	-3.07447e-012	1.03606e-011	2.17517e-011	3.1097e-011	3.90753e-011	4.55003e-011	5.05035e-011	5.42915e-011	5.66675e-011	5.79912e-011	5.76743e-011	5.64946e-011	5.37116e-011	4.89273e-011	4.06254e-011	3.22236e-011	2.42009e-011	1.59605e-011	7.91399e-012	4.92498e-013	
CoarseR110	-1.29138e-010	-8.97127e-011	-5.98853e-011	-3.50669e-011	-1.3682e-011	4.38802e-012	1.98229e-011	3.28589e-011	4.38297e-011	5.30794e-011	6.04369e-011	6.65538e-011	7.09229e-011	7.42105e-011	7.60921e-011	7.6355e-011	7.53762e-011	7.26471e-011	6.75896e-011	5.91936e-011	5.06696e-011	4.20662e-011	3.36024e-011	2.55992e-011	1.79561e-011	1.09865e-011	
CoarseR120	-1.06713e-010	-6.80739e-011	-3.85483e-011	-1.37398e-011	7.34411e-012	2.48421e-011	4.00734e-011	5.28852e-011	6.36054e-011	7.26065e-011	7.96786e-011	8.5134e-011	8.91856e-011	9.1605e-011	9.27951e-011	9.21831e-011	8.99868e-011	8.51348e-011	7.63783e-011	6.7916e-011	5.91059e-011	5.03645e-011	4.23204e-011	3.46302e-011	2.74667e-011	2.06457e-011	
CoarseR130	-8.65533e-011	-4.82252e-011	-1.92971e-011	5.3902e-012	2.59077e-011	4.34145e-011	5.84207e-011	7.08098e-011	8.12803e-011	8.9802e-011	9.65783e-011	1.01718e-010	1.05277e-010	1.07168e-010	1.0727e-010	1.05619e-010	1.01573e-010	9.31884e-011	8.43922e-011	7.54732e-011	6.66729e-011	5.84057e-011	5.04853e-011	4.33122e-011	3.64924e-011	3.00148e-011	
CoarseR140	-6.87305e-011	-3.07628e-011	-1.82917e-012	2.23621e-011	4.27051e-011	5.99915e-011	7.46377e-011	8.69411e-011	9.72887e-011	1.05522e-010	1.11805e-010	1.16624e-010	1.19662e-010	1.20671e-010	1.19901e-010	1.17025e-010	1.09063e-010	1.00488e-010	9.12475e-011	8.2196e-011	7.38638e-011	6.5745e-011	5.85591e-011	5.13766e-011	4.47323e-011	3.86503e-011	
CoarseR150	-5.21316e-011	-1.48312e-011	1.38394e-011	3.80222e-011	5.82112e-011	7.52894e-011	8.96903e-011	1.01724e-010	1.11802e-010	1.1975e-010	1.25718e-010	1.30003e-010	1.32477e-010	1.32946e-010	1.31119e-010	1.24715e-010	1.16138e-010	1.07278e-010	9.77569e-011	8.90208e-011	8.08685e-011	7.32893e-011	6.61035e-011	5.93033e-011	5.28825e-011	4.68193e-011	
CoarseR160	-3.75364e-011	-3.04528e-013	2.78356e-011	5.18888e-011	7.20356e-011	8.90804e-011	1.03394e-010	1.15187e-010	1.24974e-010	1.326e-010	1.38402e-010	1.41986e-010	1.43931e-010	1.43482e-010	1.39988e-010	1.31402e-010	1.2249e-010	1.1288e-010	1.0389e-010	9.55452e-011	8.75819e-011	8.02021e-011	7.34328e-011	6.68563e-011	6.06413e-011	5.48639e-011	
CoarseR170	-2.40054e-011	1.28899e-011	4.11064e-011	6.48312e-011	8.4761e-011	1.01768e-010	1.15819e-010	1.27669e-010	1.37188e-010	1.44653e-010	1.49759e-010	1.53375e-010	1.5459e-010	1.53074e-010	1.46187e-010	1.37624e-010	1.27967e-010	1.18889e-010	1.09929e-010	1.01941e-010	9.42162e-011	8.70308e-011	8.03076e-011	7.41655e-011	6.8046e-011	6.24787e-011	
CoarseR180	-1.20367e-011	2.49468e-011	5.30025e-011	7.67325e-011	9.66335e-011	1.13202e-010	1.27536e-010	1.38933e-010	1.4851e-010	1.55665e-010	1.60588e-010	1.63485e-010	1.63963e-010	1.6075e-010	1.52137e-010	1.43306e-010	1.33578e-010	1.24528e-010	1.15941e-010	1.08165e-010	1.00656e-010	9.37723e-011	8.7112e-011	8.12097e-011	7.53486e-011	6.99e-011	
CoarseR190	-8.08698e-013	3.59244e-011	6.38475e-011	8.75331e-011	1.07445e-010	1.2415e-010	1.38233e-010	1.49491e-010	1.58755e-010	1.65733e-010	1.70531e-010	1.72665e-010	1.72437e-010	1.66668e-010	1.58083e-010	1.48327e-010	1.38976e-010	1.30128e-010	1.21968e-010	1.14265e-010	1.07019e-010	1.00356e-010	9.39517e-011	8.81512e-011	8.22026e-011	7.70317e-011	
CoarseR200	9.56639e-012	4.63436e-011	7.42981e-011	9.78385e-011	1.17503e-010	1.34115e-010	1.48132e-010	1.59269e-010	1.68403e-010	1.75266e-010	1.79506e-010	1.81466e-010	1.80365e-010	1.72336e-010	1.63287e-010	1.53443e-010	1.44338e-010	1.35914e-010	1.27613e-010	1.20151e-010	1.13143e-010	1.06765e-010	1.0048e-010	9.47597e-011	8.90955e-011	8.40494e-011	
CoarseR210	1.9006e-011	5.56964e-011	8.35874e-011	1.07129e-010	1.26962e-010	1.43537e-010	1.57225e-010	1.68644e-010	1.77611e-010	1.84139e-010	1.8802e-010	1.89471e-010	1.86182e-010	1.77731e-010	1.68306e-010	1.58709e-010	1.49811e-010	1.41277e-010	1.33584e-010	1.26227e-010	1.19288e-010	1.12839e-010	1.07006e-010	1.01216e-010	9.56313e-011	9.06905e-011	
CoarseR220	2.77206e-011	6.43572e-011	9.21477e-011	1.15798e-010	1.35564e-010	1.5206e-010	1.66062e-010	1.77166e-010	1.86036e-010	1.92186e-010	1.95951e-010	1.96848e-010	1.91225e-010	1.82812e-010	1.73194e-010	1.63815e-010	1.55025e-010	1.46925e-010	1.3915e-010	1.32042e-010	1.25193e-010	1.19007e-010	1.13109e-010	1.07626e-010	1.02205e-010	9.7182e-011	
CoarseR230	3.5729e-011	7.23802e-011	1.00148e-010	1.23838e-010	1.43554e-010	1.60155e-010	1.73846e-010	1.85043e-010	1.93734e-010	1.99966e-010	2.03152e-010	2.03536e-010	1.96517e-010	1.87874e-010	1.77983e-010	1.68824e-010	1.60291e-010	1.52275e-010	1.44582e-010	1.37795e-010	1.3105e-010	1.24973e-010	1.19176e-010	1.13831e-010	1.08328e-010	1.03643e-010	
CoarseR240	4.29994e-011	7.95292e-011	1.07574e-010	1.31199e-010	1.51055e-010	1.67766e-010	1.81337e-010	1.92793e-010	2.01196e-010	2.07044e-010	2.1011e-010	2.09647e-010	2.01713e-010	1.92472e-010	1.82852e-010	1.73792e-010	1.65305e-010	1.57602e-010	1.50166e-010	1.43273e-010	1.36881e-010	1.30728e-010	1.25035e-010	1.19835e-010	1.14444e-010	1.09704e-010	
CoarseR250	5.00103e-011	8.65913e-011	1.14641e-010	1.38197e-010	1.58028e-010	1.74677e-010	1.88561e-010	1.99693e-010	2.0814e-010	2.13852e-010	2.16564e-010	2.14414e-010	2.06617e-010	1.96948e-010	1.8757e-010	1.788e-010	1.70589e-010	1.62773e-010	1.55475e-010	1.48889e-010	1.42388e-010	1.36391e-010	1.30825e-010	1.25742e-010	1.20504e-010	1.15708e-010	
MinCout:	-2.02909e-013	CoarseR:	80	CoarseC:	220

	CoarseC40	CoarseC41	CoarseC42	CoarseC43	CoarseC44	CoarseC45	CoarseC46	CoarseC47	CoarseC48	CoarseC49	CoarseC50	CoarseC51	CoarseC52	CoarseC53	CoarseC54	CoarseC55	CoarseC56	CoarseC57	CoarseC58	CoarseC59	CoarseC60	
CoarseR100	-3.72964e-011	-3.53097e-011	-3.3464e-011	-3.15004e-011	-2.96508e-011	-2.76826e-011	-2.5852e-011	-2.41896e-011	-2.23813e-011	-2.07148e-011	-1.89008e-011	-1.72057e-011	-1.55333e-011	-1.39025e-011	-1.23963e-011	-1.07393e-011	-9.08014e-012	-7.58628e-012	-6.07093e-012	-4.57596e-012	-3.0537e-012	
CoarseR101	-3.47982e-011	-3.28117e-011	-3.09664e-011	-2.90029e-011	-2.71534e-011	-2.51851e-011	-2.34991e-011	-2.16705e-011	-1.98619e-011	-1.82183e-011	-1.63833e-011	-1.47131e-011	-1.32057e-011	-1.12421e-011	-9.90086e-012	-8.24419e-012	-6.56383e-012	-5.23969e-012	-3.74606e-012	-2.06055e-012	-7.2966e-013	
CoarseR102	-3.22577e-011	-3.02753e-011	-2.84535e-011	-2.6607e-011	-2.46415e-011	-2.26472e-011	-2.09876e-011	-1.91589e-011	-1.73257e-011	-1.56828e-011	-1.3848e-011	-1.22023e-011	-1.06958e-011	-8.85504e-012	-7.53807e-012	-5.88205e-012	-4.22382e-012	-2.73337e-012	-1.21628e-012	2.78314e-013	1.62943e-012	
CoarseR103	-2.99227e-011	-2.79369e-011	-2.60673e-011	-2.41045e-011	-2.22801e-011	-2.0479e-011	-1.8627e-011	-1.67984e-011	-1.51582e-011	-1.34929e-011	-1.16809e-011	-1.00114e-011	-8.33995e-012	-6.52016e-012	-5.01326e-012	-3.35774e-012	-1.70045e-012	-3.55327e-013	1.11536e-012	2.63389e-012	4.1304e-012	
CoarseR104	-2.73785e-011	-2.53688e-011	-2.35506e-011	-2.15612e-011	-1.99067e-011	-1.79368e-011	-1.6278e-011	-1.42819e-011	-1.26173e-011	-1.09524e-011	-9.11776e-012	-7.44884e-012	-5.96897e-012	-4.17291e-012	-2.64359e-012	-9.88785e-013	5.00518e-013	2.01233e-012	3.67385e-012	5.00011e-012	6.49621e-012	
CoarseR105	-2.49886e-011	-2.317e-011	-2.11854e-011	-1.91963e-011	-1.73739e-011	-1.55488e-011	-1.37223e-011	-1.20619e-011	-1.02548e-011	-8.56593e-012	-6.92266e-012	-5.27776e-012	-3.5837e-012	-1.76583e-012	-2.81805e-013	1.37282e-012	2.88244e-012	4.56322e-012	5.86502e-012	7.35885e-012	8.70778e-012	
CoarseR106	-2.27489e-011	-2.07917e-011	-1.89737e-011	-1.69851e-011	-1.51387e-011	-1.33386e-011	-1.15121e-011	-9.68369e-012	-8.04523e-012	-6.38106e-012	-4.56966e-012	-2.87788e-012	-1.2309e-012	4.18754e-013	1.92424e-012	3.57841e-012	5.23474e-012	6.57755e-012	8.06893e-012	9.41524e-012	1.10809e-011	
CoarseR107	-2.04093e-011	-1.84001e-011	-1.65822e-011	-1.45938e-011	-1.29149e-011	-1.09468e-011	-9.09673e-012	-7.46134e-012	-5.65481e-012	-3.96723e-012	-2.32545e-012	-6.57648e-013	1.03502e-012	2.8067e-012	4.14301e-012	5.81892e-012	7.47434e-012	8.79464e-012	1.03068e-011	1.19699e-011	1.33172e-011	
CoarseR108	-1.79773e-011	-1.61602e-011	-1.43179e-011	-1.21881e-011	-1.05354e-011	-8.71061e-012	-6.88629e-012	-5.03368e-012	-3.42083e-012	-1.75746e-012	1.00456e-013	1.7211e-012	3.22194e-012	5.03937e-012	6.544e-012	8.02745e-012	9.70508e-012	1.10247e-011	1.27064e-011	1.40304e-011	1.55457e-011	
CoarseR109	-1.57238e-011	-1.37674e-011	-1.20934e-011	-1.0107e-011	-8.2847e-012	-6.31822e-012	-4.63702e-012	-3.003e-012	-1.17285e-012	4.89812e-013	2.15455e-012	3.7978e-012	5.29795e-012	7.28394e-012	8.61859e-012	1.0249e-011	1.17568e-011	1.3415e-011	1.47348e-011	1.62481e-011	1.75958e-011	
CoarseR110	-1.36832e-011	-1.17003e-011	-9.85692e-012	-8.03711e-012	-6.04866e-012	-4.24984e-012	-2.59385e-012	-9.35918e-013	1.06198e-012	2.55598e-012	4.36485e-012	5.86275e-012	7.70092e-012	9.32463e-012	1.08514e-011	1.23333e-011	1.39658e-011	1.54979e-011	1.69879e-011	1.83085e-011	1.98252e-011	
CoarseR111	-1.14561e-011	-9.42196e-012	-7.7754e-012	-5.78909e-012	-3.99302e-012	-2.00207e-012	-1.76686e-013	1.48085e-012	3.31056e-012	4.94811e-012	6.61213e-012	8.13215e-012	9.77738e-012	1.14002e-011	1.30727e-011	1.45775e-011	1.62306e-011	1.7739e-011	1.90587e-011	2.05503e-011	2.18944e-011	
CoarseR112	-9.19432e-012	-7.21244e-012	-5.51481e-012	-3.57968e-012	-1.73343e-012	6.46376e-014	1.74388e-012	3.57104e-012	5.20541e-012	7.20542e-012	8.70022e-012	1.03656e-011	1.20092e-011	1.36552e-011	1.51576e-011	1.67866e-011	1.8293e-011	1.9801e-011	2.11405e-011	2.28022e-011	2.41256e-011	
CoarseR113	-7.25847e-012	-5.10655e-012	-3.43526e-012	-1.4499e-012	3.70715e-013	2.33528e-012	3.98967e-012	5.64622e-012	7.45089e-012	9.11186e-012	1.0944e-011	1.24401e-011	1.40848e-011	1.57521e-011	1.72322e-011	1.89057e-011	2.02172e-011	2.18741e-011	2.33836e-011	2.47242e-011	2.62172e-011	
CoarseR114	-5.00005e-012	-3.04516e-012	-1.20316e-012	6.4032e-013	2.62812e-012	4.25434e-012	6.1033e-012	7.73402e-012	9.53819e-012	1.11986e-011	1.28611e-011	1.45276e-011	1.61941e-011	1.78386e-011	1.93398e-011	2.09888e-011	2.247e-011	2.39793e-011	2.54646e-011	2.67845e-011	2.8297e-011	
CoarseR115	-2.92306e-012	-9.16458e-013	7.53427e-013	2.71284e-012	4.53328e-012	6.52246e-012	8.34728e-012	9.83463e-012	1.18302e-011	1.32984e-011	1.4983e-011	1.66223e-011	1.81191e-011	2.01037e-011	2.12422e-011	2.29148e-011	2.45656e-011	2.60721e-011	2.73891e-011	2.88992e-011	3.02204e-011	
CoarseR116	-8.13491e-013	1.19284e-012	2.83691e-012	4.65374e-012	6.47379e-012	8.46238e-012	1.02868e-011	1.19418e-011	1.37454e-011	1.54277e-011	1.68727e-011	1.85586e-011	2.02241e-011	2.20389e-011	2.33464e-011	2.5166e-011	2.64987e-011	2.79843e-011	2.94922e-011	3.08107e-011	3.21314e-011	
CoarseR117	1.14006e-012	3.12049e-012	4.96129e-012	6.94496e-012	8.59283e-012	1.0389e-011	1.20652e-011	1.38915e-011	1.55226e-011	1.73534e-011	1.89894e-011	2.04834e-011	2.21488e-011	2.39634e-011	2.54632e-011	2.69404e-011	2.84424e-011	2.99275e-011	3.14149e-011	3.27287e-011	3.42635e-011	
CoarseR118	3.07095e-012	5.05122e-012	6.72426e-012	8.68269e-012	1.05267e-011	1.24904e-011	1.4166e-011	1.58236e-011	1.74539e-011	1.92843e-011	2.09195e-011	2.25822e-011	2.40775e-011	2.57196e-011	2.71978e-011	2.88899e-011	3.0348e-011	3.1853e-011	3.33398e-011	3.46765e-011	3.61677e-011	
CoarseR119	5.19118e-012	7.17121e-012	8.83862e-012	1.08284e-011	1.24729e-011	1.446e-011	1.62836e-011	1.77684e-011	1.97651e-011	2.12282e-011	2.28882e-011	2.43808e-011	2.61922e-011	2.78337e-011	2.93571e-011	3.10029e-011	3.24807e-011	3.37926e-011	3.52988e-011	3.67873e-011	3.81058e-011	
CoarseR120	7.34411e-012	9.15454e-012	1.09691e-011	1.29513e-011	1.44296e-011	1.64162e-011	1.82396e-011	1.98924e-011	2.1717e-011	2.31827e-011	2.50149e-011	2.66981e-011	2.81706e-011	2.98071e-011	3.13091e-011	3.29544e-011	3.44314e-011	3.59398e-011	3.72483e-011	3.87365e-011	4.00734e-011	
MinCout:	6.46376e-014	CoarseR:	112	CoarseC:	45

	FineC0	FineC10	FineC20	FineC30	FineC40	FineC50	FineC60	FineC70	FineC80	FineC90	FineC100	FineC110	FineC120	FineC130	FineC140	FineC150	FineC160	FineC170	FineC180	FineC190	FineC200	FineC210	FineC220	FineC230	FineC240	FineC250	
FineR0	-1.34572e-010	-1.08261e-010	-9.21557e-011	-8.00422e-011	-7.11034e-011	-6.3854e-011	-5.8074e-011	-5.32448e-011	-4.94622e-011	-4.59806e-011	-4.31084e-011	-4.06893e-011	-3.84047e-011	-3.64343e-011	-3.46036e-011	-3.30856e-011	-3.18782e-011	-3.05078e-011	-2.94452e-011	-2.83617e-011	-2.74689e-011	-2.67023e-011	-2.59302e-011	-2.51843e-011	-2.43963e-011	-2.39648e-011	
FineR10	-1.17868e-010	-9.15609e-011	-7.56023e-011	-6.37877e-011	-5.47497e-011	-4.76159e-011	-4.18424e-011	-3.70174e-011	-3.30748e-011	-2.97635e-011	-2.6874e-011	-2.44547e-011	-2.23665e-011	-2.02294e-011	-1.85693e-011	-1.703e-011	-1.58488e-011	-1.44753e-011	-1.33947e-011	-1.23328e-011	-1.15903e-011	-1.06749e-011	-9.90841e-012	-9.30942e-012	-8.5412e-012	-8.1109e-012	
FineR20	-1.10419e-010	-8.44136e-011	-6.83017e-011	-5.64959e-011	-4.74057e-011	-4.03088e-011	-3.45641e-011	-2.98815e-011	-2.59695e-011	-2.26134e-011	-1.97497e-011	-1.73582e-011	-1.52267e-011	-1.30915e-011	-1.14337e-011	-9.91944e-012	-8.54986e-012	-7.34519e-012	-6.45633e-012	-5.20779e-012	-4.48426e-012	-3.57011e-012	-2.82565e-012	-2.03836e-012	-1.60905e-012	-8.41341e-013	
FineR30	-1.0626e-010	-8.02579e-011	-6.41269e-011	-5.2324e-011	-4.32654e-011	-3.634e-011	-3.0573e-011	-2.58958e-011	-2.19606e-011	-1.86559e-011	-1.5604e-011	-1.31905e-011	-1.10848e-011	-9.14126e-012	-7.46203e-012	-5.95013e-012	-4.58086e-012	-3.2105e-012	-2.15317e-012	-1.24265e-012	-3.5231e-013	5.82028e-013	1.34711e-012	1.92399e-012	2.71169e-012	3.16125e-012	
FineR40	-1.03426e-010	-7.7562e-011	-6.16343e-011	-4.95011e-011	-4.05876e-011	-3.34983e-011	-2.77582e-011	-2.3059e-011	-1.93418e-011	-1.5822e-011	-1.29394e-011	-1.03598e-011	-8.2778e-012	-6.48106e-012	-4.63507e-012	-3.1232e-012	-1.94588e-012	-5.75385e-013	5.02827e-013	1.4127e-012	2.32387e-012	3.21517e-012	3.97988e-012	4.76656e-012	5.36486e-012	5.96127e-012	
FineR50	-1.01501e-010	-7.56749e-011	-5.95834e-011	-4.77558e-011	-3.86789e-011	-3.15926e-011	-2.58573e-011	-2.11581e-011	-1.72503e-011	-1.40922e-011	-1.1066e-011	-8.63247e-012	-6.38357e-012	-4.39606e-012	-2.91077e-012	-1.23139e-012	1.36835e-013	1.31519e-012	2.39298e-012	3.45074e-012	4.21309e-012	5.104e-012	5.86838e-012	6.46508e-012	7.23171e-012	7.84898e-012	
FineR60	-1.00189e-010	-7.41678e-011	-5.82116e-011	-4.63882e-011	-3.73444e-011	-3.00882e-011	-2.44951e-011	-1.96561e-011	-1.58922e-011	-1.25921e-011	-9.73473e-012	-7.13365e-012	-5.05349e-012	-3.09002e-012	-1.39106e-012	9.72772e-014	1.46407e-012	2.85545e-012	3.71935e-012	4.7766e-012	5.68715e-012	6.62059e-012	7.21603e-012	7.98162e-012	8.57668e-012	9.17533e-012	
FineR70	-9.90536e-011	-7.32038e-011	-5.70828e-011	-4.52613e-011	-3.61888e-011	-2.91061e-011	-2.33714e-011	-1.86994e-011	-1.477e-011	-1.14704e-011	-8.59019e-012	-6.18084e-012	-4.07855e-012	-1.9471e-012	-2.71099e-013	1.07003e-012	2.58372e-012	3.80515e-012	4.8601e-012	5.74737e-012	6.65751e-012	7.59064e-012	8.33355e-012	8.92955e-012	9.69603e-012	1.0313e-011	
FineR80	-9.80839e-011	-7.22605e-011	-5.63096e-011	-4.43226e-011	-3.52515e-011	-2.817e-011	-2.26044e-011	-1.79333e-011	-1.39806e-011	-1.0682e-011	-7.65777e-012	-5.2489e-012	-3.14698e-012	-9.92876e-013	6.59819e-013	2.00065e-012	3.36757e-012	4.56669e-012	5.64344e-012	6.84727e-012	7.609e-012	8.52016e-012	9.11499e-012	9.85876e-012	1.06457e-011	1.10733e-011	
FineR90	-9.76594e-011	-7.16514e-011	-5.55358e-011	-4.35779e-011	-3.46491e-011	-2.74265e-011	-2.1809e-011	-1.71661e-011	-1.32381e-011	-9.91383e-012	-7.08345e-012	-4.65171e-012	-2.38193e-012	-4.20034e-013	1.25483e-012	2.74198e-012	4.10795e-012	5.32955e-012	6.55326e-012	7.43952e-012	8.37115e-012	9.26112e-012	1.00247e-011	1.06419e-011	1.12158e-011	1.18344e-011	
FineR100	-9.69436e-011	-7.10943e-011	-5.498e-011	-4.29959e-011	-3.39271e-011	-2.70121e-011	-2.12582e-011	-1.65889e-011	-1.26617e-011	-9.33809e-012	-6.48401e-012	-3.93239e-012	-1.80769e-012	1.5384e-013	1.80576e-012	3.3152e-012	4.68092e-012	6.04925e-012	6.95588e-012	8.0118e-012	8.9213e-012	9.66267e-012	1.05965e-011	1.13825e-011	1.17874e-011	1.22349e-011	
FineR110	-9.65088e-011	-7.05076e-011	-5.45573e-011	-4.26083e-011	-3.35404e-011	-2.6433e-011	-2.07026e-011	-1.62024e-011	-1.21089e-011	-8.7868e-012	-5.93189e-012	-3.52527e-012	-1.42459e-012	5.59644e-013	2.37966e-012	3.71993e-012	5.06273e-012	6.45312e-012	7.48562e-012	8.41497e-012	9.30306e-012	1.02357e-011	1.09989e-011	1.17423e-011	1.21688e-011	1.29765e-011	
FineR120	-9.59922e-011	-7.01101e-011	-5.4007e-011	-4.22213e-011	-3.3318e-011	-2.62121e-011	-2.04829e-011	-1.56494e-011	-1.18657e-011	-8.4015e-012	-5.548e-012	-3.14118e-012	-8.49229e-013	1.08871e-012	2.76283e-012	4.27169e-012	5.63691e-012	6.83501e-012	7.88953e-012	8.94521e-012	9.85452e-012	1.06167e-011	1.1359e-011	1.1954e-011	1.27406e-011	1.33366e-011	
FineR130	-9.57145e-011	-6.97577e-011	-5.36473e-011	-4.18288e-011	-3.27634e-011	-2.56838e-011	-1.99293e-011	-1.54306e-011	-1.1337e-011	-8.04108e-012	-5.01901e-012	-2.75725e-012	-4.88574e-013	1.30338e-012	3.14595e-012	4.63175e-012	5.99682e-012	7.21809e-012	8.27168e-012	9.15799e-012	1.00671e-011	1.09774e-011	1.17197e-011	1.25057e-011	1.30996e-011	1.37178e-011	
FineR140	-9.55227e-011	-6.93607e-011	-5.34146e-011	-4.1605e-011	-3.25413e-011	-2.53235e-011	-1.97371e-011	-1.50701e-011	-1.09764e-011	-7.65566e-012	-4.99469e-012	-2.39656e-012	-2.96487e-013	1.68718e-012	3.50677e-012	5.0153e-012	6.18882e-012	7.57896e-012	8.46262e-012	9.54015e-012	1.0449e-011	1.119e-011	1.21234e-011	1.28667e-011	1.33134e-011	1.41006e-011	
FineR150	-9.5196e-011	-6.91313e-011	-5.32169e-011	-4.12447e-011	-3.22075e-011	-2.51028e-011	-1.93745e-011	-1.46832e-011	-1.0783e-011	-7.46339e-012	-4.60964e-012	-2.03549e-012	6.43915e-014	2.0479e-012	3.69856e-012	5.20693e-012	6.57175e-012	7.62304e-012	8.84513e-012	9.90018e-012	1.08101e-011	1.15499e-011	1.24833e-011	1.29072e-011	1.36731e-011	1.44603e-011	
FineR160	-9.49943e-011	-6.88015e-011	-5.30245e-011	-4.10481e-011	-3.20118e-011	-2.49078e-011	-1.91548e-011	-1.45156e-011	-1.05906e-011	-7.10174e-012	-4.41684e-012	-1.81942e-012	2.79943e-013	2.23997e-012	3.89044e-012	5.39864e-012	6.76331e-012	7.98337e-012	9.03643e-012	1.01137e-011	1.10012e-011	1.17409e-011	1.26742e-011	1.32685e-011	1.38639e-011	1.448e-011	
FineR170	-9.46359e-011	-6.86325e-011	-5.28554e-011	-4.08789e-011	-3.1816e-011	-2.47127e-011	-1.89857e-011	-1.42953e-011	-1.03716e-011	-6.90853e-012	-4.22396e-012	-1.6268e-012	4.49039e-013	2.40926e-012	4.0824e-012	5.59042e-012	6.95495e-012	8.15233e-012	9.39775e-012	1.02614e-011	1.11924e-011	1.19319e-011	1.26946e-011	1.36302e-011	1.40547e-011	1.46505e-011	
FineR180	-9.4434e-011	-6.86008e-011	-5.24622e-011	-4.06822e-011	-3.16202e-011	-2.45176e-011	-1.8793e-011	-1.41012e-011	-1.00349e-011	-6.71525e-012	-4.03101e-012	-1.45769e-012	6.41481e-013	2.62436e-012	4.27443e-012	5.78228e-012	7.14667e-012	8.51367e-012	9.41928e-012	1.04963e-011	1.13614e-011	1.21231e-011	1.30562e-011	1.37992e-011	1.42456e-011	1.48616e-011	
FineR190	-9.43902e-011	-6.83641e-011	-5.22643e-011	-4.03226e-011	-3.14509e-011	-2.43483e-011	-1.85965e-011	-1.37658e-011	-1.00087e-011	-6.52188e-012	-3.67022e-012	-1.26493e-012	1.0025e-012	2.79346e-012	4.46654e-012	5.97422e-012	7.31573e-012	8.70532e-012	9.75828e-012	1.06653e-011	1.15527e-011	1.24626e-011	1.32473e-011	1.39902e-011	1.4435e-011	1.52016e-011	
FineR200	-9.42212e-011	-6.80658e-011	-5.2095e-011	-4.03489e-011	-3.14199e-011	-2.41507e-011	-1.85956e-011	-1.37387e-011	-9.83948e-012	-6.52061e-012	-3.47681e-012	-1.0963e-012	1.19492e-012	3.00867e-012	4.63515e-012	6.14266e-012	7.67631e-012	8.70451e-012	9.7798e-012	1.08344e-011	1.17428e-011	1.26525e-011	1.33943e-011	1.39886e-011	1.47749e-011	1.52015e-011	
FineR210	-9.40631e-011	-6.80271e-011	-5.20596e-011	-4.01164e-011	-3.10303e-011	-2.39848e-011	-1.82335e-011	-1.35694e-011	-9.81323e-012	-6.32715e-012	-3.47621e-012	-9.27043e-013	1.19519e-012	3.17747e-012	4.80454e-012	6.33443e-012	7.69842e-012	8.89625e-012	9.94892e-012	1.10035e-011	1.17639e-011	1.26733e-011	1.34149e-011	1.42003e-011	1.47968e-011	1.54128e-011	
FineR220	-9.38516e-011	-6.78579e-011	-5.18969e-011	-3.99248e-011	-3.1029e-011	-2.37871e-011	-1.82053e-011	-1.35685e-011	-9.64565e-012	-6.15857e-012	-3.28273e-012	-9.02827e-013	1.19564e-012	3.17788e-012	5.01929e-012	6.52652e-012	7.86759e-012	9.08786e-012	1.01404e-011	1.1195e-011	1.21033e-011	1.28424e-011	1.37975e-011	1.4371e-011	1.49643e-011	1.54127e-011	
FineR230	-9.38502e-011	-6.78192e-011	-5.16935e-011	-3.99234e-011	-3.08609e-011	-2.3786e-011	-1.80359e-011	-1.33751e-011	-9.45084e-012	-6.13362e-012	-3.11433e-012	-5.41739e-013	1.58007e-012	3.34709e-012	5.16566e-012	6.5261e-012	8.03741e-012	9.08807e-012	1.03096e-011	1.13865e-011	1.21244e-011	1.30129e-011	1.37753e-011	1.43915e-011	1.51351e-011	1.57511e-011	
FineR240	-9.36495e-011	-6.76582e-011	-5.15596e-011	-3.975e-011	-3.06915e-011	-2.35917e-011	-1.78421e-011	-1.31794e-011	-9.25774e-012	-5.96372e-012	-3.11343e-012	-5.17469e-013	1.58037e-012	3.53919e-012	5.18853e-012	6.69575e-012	8.05958e-012	9.27895e-012	1.03312e-011	1.13854e-011	1.23158e-011	1.30339e-011	1.3946e-011	1.45386e-011	1.51555e-011	1.57511e-011	
FineR250	-9.34913e-011	-6.76194e-011	-5.15241e-011	-3.95859e-011	-3.04965e-011	-2.35905e-011	-1.78665e-011	-1.30123e-011	-9.28148e-012	-5.77087e-012	-2.92081e-012	-5.16877e-013	1.74938e-012	3.56252e-012	5.21144e-012	6.71828e-012	8.25133e-012	9.44792e-012	1.05003e-011	1.13856e-011	1.22936e-011	1.32252e-011	1.39667e-011	1.47299e-011	1.51759e-011	1.59423e-011	
MinCout:	6.43915e-014	FineR:	150	FineC:	120

	FineC120	FineC121	FineC122	FineC123	FineC124	FineC125	FineC126	FineC127	FineC128	FineC129	FineC130	FineC131	FineC132	FineC133	FineC134	FineC135	FineC136	FineC137	FineC138	FineC139	FineC140	
FineR100	-1.80769e-012	-1.66235e-012	-1.51695e-012	-1.226e-012	-1.05744e-012	-9.11882e-013	-7.66276e-013	-4.52042e-013	-3.06277e-013	-1.49169e-014	1.76757e-013	3.22592e-013	4.68477e-013	7.83003e-013	9.28995e-013	1.05231e-012	1.19844e-012	1.38973e-012	1.51324e-012	1.68208e-012	1.80576e-012	
FineR101	-1.80769e-012	-1.47071e-012	-1.3484e-012	-1.20294e-012	-8.88877e-013	-7.43316e-013	-5.97704e-013	-4.29064e-013	-1.37747e-013	8.02118e-015	1.76758e-013	4.68308e-013	6.37112e-013	7.83067e-013	9.29073e-013	1.07485e-012	1.22093e-012	1.36706e-012	1.53602e-012	1.65948e-012	1.99714e-012	
FineR102	-1.63934e-012	-1.49397e-012	-1.15677e-012	-1.01133e-012	-8.88986e-013	-7.43411e-013	-4.06135e-013	-2.60487e-013	-1.14789e-013	3.09593e-014	3.45352e-013	4.68338e-013	6.37112e-013	7.83067e-013	9.28818e-013	1.07485e-012	1.24375e-012	1.38986e-012	1.70466e-012	1.85087e-012	1.97458e-012	
FineR103	-1.78466e-012	-1.4939e-012	-1.1569e-012	-1.03451e-012	-7.20406e-013	-5.74825e-013	-4.06191e-013	-4.52196e-013	5.37934e-014	1.99547e-013	1.76609e-013	6.59805e-013	8.05716e-013	8.05716e-013	9.51677e-013	1.07494e-012	1.41237e-012	1.55849e-012	1.70466e-012	1.85087e-012	2.16578e-012	
FineR104	-1.61611e-012	-1.47078e-012	-1.32541e-012	-8.42874e-013	-8.65936e-013	-5.51803e-013	-5.74825e-013	-2.60602e-013	-1.14915e-013	3.08224e-014	1.7661e-013	4.91062e-013	6.36956e-013	8.05716e-013	1.09753e-012	1.24358e-012	1.41237e-012	1.55863e-012	1.68167e-012	1.85068e-012	1.99694e-012	
FineR105	-1.59297e-012	-1.2791e-012	-1.15685e-012	-1.01142e-012	-8.65936e-013	-5.51825e-013	-4.06239e-013	-2.60602e-013	5.36817e-014	1.99425e-013	3.45218e-013	4.91062e-013	8.05575e-013	9.74409e-013	1.12039e-012	1.26642e-012	1.58114e-012	1.72728e-012	1.70447e-012	1.87329e-012	1.99694e-012	
FineR106	-1.42441e-012	-1.2791e-012	-1.13374e-012	-8.19765e-013	-6.743e-013	-5.28783e-013	-3.83217e-013	-6.90083e-014	7.66647e-014	2.22388e-013	5.3677e-013	6.82599e-013	8.28479e-013	9.74409e-013	1.28902e-012	1.43506e-012	1.41221e-012	1.55832e-012	1.70447e-012	2.01933e-012	2.18836e-012	
FineR107	-1.44771e-012	-1.30237e-012	-9.88395e-013	-8.42945e-013	-6.74378e-013	-3.83296e-013	-2.37689e-013	-6.90083e-014	5.3674e-014	3.9099e-013	5.3677e-013	6.82599e-013	8.51383e-013	1.12025e-012	1.28902e-012	1.28902e-012	1.43506e-012	1.74978e-012	1.89593e-012	2.04212e-012	2.18836e-012	
FineR108	-1.59301e-012	-1.13379e-012	-9.65288e-013	-8.42945e-013	-5.05784e-013	-3.83296e-013	-2.14661e-013	-6.90083e-014	2.22291e-013	3.9099e-013	3.68053e-013	8.51292e-013	8.51212e-013	9.97098e-013	1.14303e-012	1.45765e-012	1.60369e-012	1.74978e-012	1.89593e-012	2.04212e-012	2.21077e-012	
FineR109	-1.42444e-012	-1.11067e-012	-9.65215e-013	-6.51269e-013	-6.74356e-013	-5.28851e-013	-2.30225e-014	-6.90839e-014	2.22291e-013	3.91022e-013	5.36675e-013	6.82494e-013	8.28363e-013	9.74283e-013	1.2889e-012	1.43492e-012	1.60385e-012	1.74995e-012	2.06478e-012	2.21099e-012	2.1882e-012	
FineR110	-1.40127e-012	-1.08742e-012	-7.96792e-013	-8.43017e-013	-4.8268e-013	-3.60257e-013	-2.14695e-013	9.95864e-014	4.13896e-013	5.59644e-013	5.36675e-013	6.82494e-013	1.01993e-012	1.16583e-012	1.31179e-012	1.45779e-012	1.7725e-012	1.91862e-012	1.89578e-012	2.06478e-012	2.21099e-012	
FineR111	-1.25601e-012	-1.11069e-012	-9.65323e-013	-6.51301e-013	-5.05826e-013	-3.37189e-013	-1.91648e-013	1.2255e-013	2.68197e-013	4.13896e-013	7.28266e-013	8.74071e-013	1.01993e-012	1.16583e-012	1.50332e-012	1.62644e-012	1.79535e-012	1.94145e-012	1.91862e-012	2.23344e-012	2.37966e-012	
FineR112	-1.23284e-012	-1.08754e-012	-7.96725e-013	-6.51301e-013	-4.8268e-013	-1.91687e-013	-2.30532e-014	1.2255e-013	2.45207e-013	5.82569e-013	7.28337e-013	8.74071e-013	1.21149e-012	1.3346e-012	1.48058e-012	1.64931e-012	1.77268e-012	1.9185e-012	2.06465e-012	2.23367e-012	2.40245e-012	
FineR113	-1.08754e-012	-9.18947e-013	-7.73593e-013	-6.28189e-013	-3.14125e-013	-1.68614e-013	-2.30532e-014	1.22558e-013	4.36851e-013	5.82569e-013	7.28337e-013	1.0428e-012	1.18868e-012	1.35752e-012	1.50347e-012	1.62635e-012	1.79527e-012	1.94135e-012	2.08749e-012	2.23367e-012	2.54859e-012	
FineR114	-1.06436e-012	-9.19043e-013	-6.05057e-013	-4.59633e-013	-3.14159e-013	-1.68634e-013	1.45581e-013	2.91212e-013	4.36894e-013	5.82626e-013	8.9707e-013	1.06576e-012	1.1888e-012	1.33474e-012	1.50326e-012	1.62651e-012	1.79546e-012	1.94135e-012	2.279e-012	2.42517e-012	2.57139e-012	
FineR115	-1.23282e-012	-7.50431e-013	-6.05057e-013	-4.59633e-013	-2.91061e-013	0	1.45581e-013	2.91212e-013	6.05544e-013	7.74199e-013	7.28283e-013	1.04291e-012	1.18862e-012	1.35747e-012	1.50326e-012	1.67214e-012	1.96414e-012	2.11025e-012	2.2564e-012	2.42517e-012	2.40235e-012	
FineR116	-1.04103e-012	-8.95754e-013	-7.50431e-013	-2.67893e-013	-2.9101e-013	2.30784e-014	0	3.1422e-013	6.28564e-013	6.05544e-013	7.51282e-013	1.06573e-012	1.21158e-012	1.35747e-012	1.50341e-012	1.81809e-012	1.96414e-012	2.13288e-012	2.279e-012	2.5713e-012	2.5713e-012	
FineR117	-1.04103e-012	-8.95754e-013	-5.81819e-013	-4.3644e-013	-2.9101e-013	2.30784e-014	1.68634e-013	3.1422e-013	4.59857e-013	6.05544e-013	9.19938e-013	1.06573e-012	1.21158e-012	1.52614e-012	1.67209e-012	1.81809e-012	1.98703e-012	2.13311e-012	2.27894e-012	2.4251e-012	2.5713e-012	
FineR118	-1.04103e-012	-7.27147e-013	-5.81819e-013	-4.59626e-013	-2.9101e-013	0	1.68634e-013	3.1422e-013	6.28502e-013	7.74195e-013	9.19938e-013	1.06573e-012	1.4032e-012	1.54908e-012	1.69501e-012	1.84099e-012	2.15571e-012	2.3018e-012	2.27894e-012	2.44794e-012	2.5713e-012	
FineR119	-8.72511e-013	-7.0397e-013	-5.81876e-013	-2.44685e-013	-1.22396e-013	2.30981e-014	1.68654e-013	4.82914e-013	6.51541e-013	7.97214e-013	9.42938e-013	1.25737e-012	1.4032e-012	1.5263e-012	1.86369e-012	2.00968e-012	1.96408e-012	2.15571e-012	2.25631e-012	2.61664e-012	2.76283e-012	
FineR120	-8.72511e-013	-7.27218e-013	-4.13244e-013	-2.67845e-013	-1.22396e-013	2.31036e-014	3.37308e-013	4.82914e-013	6.2857e-013	9.42947e-013	1.08871e-012	1.23452e-012	1.4032e-012	1.71776e-012	1.84096e-012	1.84077e-012	1.98698e-012	2.3244e-012	2.4705e-012	2.59407e-012	2.74029e-012	
MinCout:	0	FineR:	115	FineC:	125

