	CoarseC0	CoarseC10	CoarseC20	CoarseC30	CoarseC40	CoarseC50	CoarseC60	CoarseC70	CoarseC80	CoarseC90	CoarseC100	CoarseC110	CoarseC120	CoarseC130	CoarseC140	CoarseC150	CoarseC160	CoarseC170	CoarseC180	CoarseC190	CoarseC200	CoarseC210	CoarseC220	CoarseC230	CoarseC240	CoarseC250	
CoarseR0	-1.06693e-009	-1.02357e-009	-9.80553e-010	-9.4306e-010	-9.11116e-010	-8.84044e-010	-8.60848e-010	-8.4089e-010	-8.2378e-010	-8.08835e-010	-7.95702e-010	-7.84361e-010	-7.74193e-010	-7.65411e-010	-7.57726e-010	-7.50632e-010	-7.44471e-010	-7.3923e-010	-7.34565e-010	-7.30408e-010	-7.269e-010	-7.23973e-010	-7.21342e-010	-7.19105e-010	-7.17234e-010	-7.15764e-010	
CoarseR10	-8.05323e-010	-7.58191e-010	-7.18308e-010	-6.83264e-010	-6.53845e-010	-6.28625e-010	-6.06815e-010	-5.88082e-010	-5.71922e-010	-5.57746e-010	-5.45206e-010	-5.34319e-010	-5.24884e-010	-5.16457e-010	-5.09271e-010	-5.02841e-010	-4.97314e-010	-4.9269e-010	-4.88622e-010	-4.85348e-010	-4.82806e-010	-4.80407e-010	-4.78585e-010	-4.77162e-010	-4.76256e-010	-4.75469e-010	
CoarseR20	-6.38731e-010	-5.90095e-010	-5.51934e-010	-5.1907e-010	-4.90995e-010	-4.67398e-010	-4.46764e-010	-4.29092e-010	-4.13752e-010	-4.0031e-010	-3.88324e-010	-3.784e-010	-3.69632e-010	-3.62107e-010	-3.55615e-010	-3.49906e-010	-3.45263e-010	-3.41155e-010	-3.37664e-010	-3.34937e-010	-3.32558e-010	-3.30893e-010	-3.29823e-010	-3.28964e-010	-3.28643e-010	-3.28547e-010	
CoarseR30	-5.1888e-010	-4.71791e-010	-4.35032e-010	-4.03778e-010	-3.76972e-010	-3.54366e-010	-3.34501e-010	-3.17739e-010	-3.03262e-010	-2.90617e-010	-2.79627e-010	-2.70353e-010	-2.62077e-010	-2.55177e-010	-2.49199e-010	-2.44385e-010	-2.39961e-010	-2.36619e-010	-2.33741e-010	-2.31511e-010	-2.29947e-010	-2.28919e-010	-2.28355e-010	-2.2837e-010	-2.28528e-010	-2.29472e-010	
CoarseR40	-4.29691e-010	-3.83173e-010	-3.47684e-010	-3.17716e-010	-2.92206e-010	-2.7044e-010	-2.5149e-010	-2.35441e-010	-2.21706e-010	-2.09646e-010	-1.99414e-010	-1.90688e-010	-1.82968e-010	-1.76624e-010	-1.71281e-010	-1.66845e-010	-1.63145e-010	-1.60309e-010	-1.5807e-010	-1.56529e-010	-1.55759e-010	-1.5545e-010	-1.55861e-010	-1.56678e-010	-1.57936e-010	-1.59824e-010	
CoarseR50	-3.60712e-010	-3.14873e-010	-2.80674e-010	-2.51582e-010	-2.26954e-010	-2.06023e-010	-1.87962e-010	-1.72403e-010	-1.5919e-010	-1.47944e-010	-1.38027e-010	-1.2994e-010	-1.22889e-010	-1.17029e-010	-1.12344e-010	-1.08396e-010	-1.05335e-010	-1.03176e-010	-1.01731e-010	-1.00849e-010	-1.0075e-010	-1.01404e-010	-1.02625e-010	-1.04573e-010	-1.06967e-010	-1.10097e-010	
CoarseR60	-3.04903e-010	-2.60041e-010	-2.26932e-010	-1.98677e-010	-1.74925e-010	-1.54414e-010	-1.37163e-010	-1.22394e-010	-1.09594e-010	-9.87857e-011	-8.96729e-011	-8.18705e-011	-7.52607e-011	-7.00357e-011	-6.58637e-011	-6.23902e-011	-6.01202e-011	-5.85926e-011	-5.7831e-011	-5.7937e-011	-5.88188e-011	-6.04062e-011	-6.27956e-011	-6.62099e-011	-7.02109e-011	-7.52479e-011	
CoarseR70	-2.58765e-010	-2.15064e-010	-1.82692e-010	-1.55073e-010	-1.319e-010	-1.12309e-010	-9.54456e-011	-8.10759e-011	-6.88833e-011	-5.85092e-011	-4.98114e-011	-4.26416e-011	-3.6667e-011	-3.18846e-011	-2.81656e-011	-2.56655e-011	-2.37348e-011	-2.30349e-011	-2.32708e-011	-2.43779e-011	-2.62531e-011	-2.91862e-011	-3.3343e-011	-3.85117e-011	-4.58029e-011	-5.38695e-011	
CoarseR80	-2.1977e-010	-1.76782e-010	-1.45325e-010	-1.18442e-010	-9.57565e-011	-7.65722e-011	-6.02569e-011	-4.64705e-011	-3.48391e-011	-2.47441e-011	-1.66232e-011	-9.75127e-012	-4.23685e-012	-9.73937e-014	2.98392e-012	4.97897e-012	5.89964e-012	5.75509e-012	4.71223e-012	2.42058e-012	-9.62995e-013	-5.70363e-012	-1.29318e-011	-2.14339e-011	-2.94427e-011	-3.74206e-011	
CoarseR90	-1.86288e-010	-1.44461e-010	-1.13582e-010	-8.73063e-011	-6.5032e-011	-4.63476e-011	-3.04171e-011	-1.68424e-011	-5.44496e-012	3.89309e-012	1.16883e-011	1.79654e-011	2.30292e-011	2.66747e-011	2.89152e-011	3.0076e-011	3.03437e-011	2.93223e-011	2.69055e-011	2.32594e-011	1.7609e-011	9.08086e-012	7.63439e-013	-7.99448e-012	-1.63873e-011	-2.41162e-011	
CoarseR100	-1.57213e-010	-1.16208e-010	-8.57618e-011	-5.98814e-011	-3.82771e-011	-1.97836e-011	-4.07809e-012	8.93708e-012	1.97242e-011	2.89811e-011	3.61788e-011	4.19793e-011	4.65384e-011	4.95211e-011	5.12577e-011	5.17369e-011	5.09542e-011	4.89326e-011	4.49537e-011	3.82745e-011	2.96299e-011	2.06484e-011	1.16886e-011	3.21189e-012	-4.60504e-012	-1.19402e-011	
CoarseR110	-1.31915e-010	-9.13326e-011	-6.13952e-011	-3.60099e-011	-1.47213e-011	3.21707e-012	1.85456e-011	3.13127e-011	4.20309e-011	5.06698e-011	5.7727e-011	6.30546e-011	6.67704e-011	6.94339e-011	7.02834e-011	6.98934e-011	6.80492e-011	6.42933e-011	5.73585e-011	4.83882e-011	3.91518e-011	3.00862e-011	2.15111e-011	1.34821e-011	6.08709e-012	-7.86429e-013	
CoarseR120	-1.09358e-010	-6.92422e-011	-3.98104e-011	-1.47107e-011	6.37622e-012	2.39275e-011	3.9047e-011	5.15658e-011	6.16851e-011	7.00201e-011	7.66251e-011	8.16302e-011	8.48299e-011	8.67952e-011	8.69461e-011	8.5671e-011	8.22394e-011	7.54888e-011	6.63496e-011	5.70301e-011	4.76816e-011	3.88643e-011	3.07507e-011	2.3167e-011	1.63031e-011	9.58364e-012	
CoarseR130	-8.91375e-011	-4.98464e-011	-2.05177e-011	4.23067e-012	2.51755e-011	4.23531e-011	5.72263e-011	6.93487e-011	7.95257e-011	8.73903e-011	9.36655e-011	9.79981e-011	1.00854e-010	1.01915e-010	1.01368e-010	9.88444e-011	9.26515e-011	8.35301e-011	7.41082e-011	6.44757e-011	5.578e-011	4.74442e-011	3.98304e-011	3.25834e-011	2.55074e-011	1.9331e-011	
CoarseR140	-7.12484e-011	-3.22036e-011	-3.30595e-012	2.12801e-011	4.18428e-011	5.89845e-011	7.36618e-011	8.54678e-011	9.53638e-011	1.02937e-010	1.08715e-010	1.1288e-010	1.15015e-010	1.15371e-010	1.13723e-010	1.09508e-010	1.00193e-010	9.07761e-011	8.08701e-011	7.19186e-011	6.33549e-011	5.53569e-011	4.79031e-011	4.08318e-011	3.45075e-011	2.83635e-011	
CoarseR150	-5.51588e-011	-1.6389e-011	1.23268e-011	3.66088e-011	5.69448e-011	7.40606e-011	8.84766e-011	1.00199e-010	1.09624e-010	1.17065e-010	1.227e-010	1.26149e-010	1.27552e-010	1.2718e-010	1.24296e-010	1.16243e-010	1.0713e-010	9.71155e-011	8.77081e-011	7.89108e-011	7.06892e-011	6.28916e-011	5.58365e-011	4.89834e-011	4.26737e-011	3.6945e-011	
CoarseR160	-4.05602e-011	-1.85298e-012	2.65853e-011	5.08323e-011	7.10124e-011	8.79023e-011	1.02211e-010	1.1368e-010	1.22967e-010	1.29906e-010	1.3497e-010	1.38073e-010	1.39146e-010	1.37464e-010	1.31973e-010	1.22853e-010	1.13006e-010	1.03311e-010	9.40871e-011	8.56637e-011	7.76465e-011	7.02257e-011	6.34033e-011	5.69674e-011	5.09095e-011	4.52343e-011	
CoarseR170	-2.69484e-011	1.13646e-011	3.96886e-011	6.35865e-011	8.3722e-011	1.00753e-010	1.14588e-010	1.25945e-010	1.34982e-010	1.41718e-010	1.46468e-010	1.49197e-010	1.4934e-010	1.46608e-010	1.38401e-010	1.28853e-010	1.18681e-010	1.09191e-010	1.00731e-010	9.23e-011	8.4702e-011	7.75083e-011	7.09077e-011	6.43347e-011	5.85513e-011	5.29667e-011	
CoarseR180	-1.48872e-011	2.34457e-011	5.17471e-011	7.54978e-011	9.57454e-011	1.12154e-010	1.26282e-010	1.37369e-010	1.46212e-010	1.52832e-010	1.57028e-010	1.59022e-010	1.58632e-010	1.53415e-010	1.44451e-010	1.34308e-010	1.24339e-010	1.15241e-010	1.06777e-010	9.88e-011	9.14308e-011	8.44768e-011	7.79682e-011	7.18468e-011	6.59471e-011	6.06354e-011	
CoarseR190	-3.82383e-012	3.4443e-011	6.2392e-011	8.62665e-011	1.06345e-010	1.23081e-010	1.3673e-010	1.48042e-010	1.5656e-010	1.62841e-010	1.66871e-010	1.68341e-010	1.66813e-010	1.59212e-010	1.49467e-010	1.3957e-010	1.29981e-010	1.21293e-010	1.12896e-010	1.05125e-010	9.80386e-011	9.11477e-011	8.45171e-011	7.86635e-011	7.32613e-011	6.78727e-011	
CoarseR200	6.5628e-012	4.44585e-011	7.25893e-011	9.63392e-011	1.16328e-010	1.32966e-010	1.46731e-010	1.57584e-010	1.66108e-010	1.72233e-010	1.75729e-010	1.76832e-010	1.73788e-010	1.64762e-010	1.54602e-010	1.44739e-010	1.35581e-010	1.27117e-010	1.18969e-010	1.11488e-010	1.04434e-010	9.78336e-011	9.1475e-011	8.55613e-011	8.00604e-011	7.49519e-011	
CoarseR210	1.59802e-011	5.39543e-011	8.19653e-011	1.05841e-010	1.25802e-010	1.42313e-010	1.56017e-010	1.66881e-010	1.75313e-010	1.81053e-010	1.84212e-010	1.84572e-010	1.79224e-010	1.69898e-010	1.59683e-010	1.50256e-010	1.41128e-010	1.3275e-010	1.24864e-010	1.17639e-010	1.10477e-010	1.04004e-010	9.81214e-011	9.23105e-011	8.68994e-011	8.19438e-011	
CoarseR220	2.47526e-011	6.26395e-011	9.08044e-011	1.14504e-010	1.3441e-010	1.51021e-010	1.64408e-010	1.75554e-010	1.83456e-010	1.89237e-010	1.92008e-010	1.91677e-010	1.84563e-010	1.75028e-010	1.64865e-010	1.55474e-010	1.46627e-010	1.38484e-010	1.30679e-010	1.23546e-010	1.16707e-010	1.10517e-010	1.04357e-010	9.86828e-011	9.33913e-011	8.85489e-011	
CoarseR230	3.27198e-011	7.06757e-011	9.86793e-011	1.22649e-010	1.42522e-010	1.58935e-010	1.72565e-010	1.83382e-010	1.91528e-010	1.96998e-010	1.99393e-010	1.98124e-010	1.89761e-010	1.79688e-010	1.69945e-010	1.60609e-010	1.52046e-010	1.44002e-010	1.36465e-010	1.29429e-010	1.22876e-010	1.16604e-010	1.10563e-010	1.05012e-010	9.9851e-011	9.51586e-011	
CoarseR240	4.01918e-011	7.79177e-011	1.06233e-010	1.30035e-010	1.50019e-010	1.6646e-010	1.80025e-010	1.90886e-010	1.98886e-010	2.03959e-010	2.06239e-010	2.03531e-010	1.9471e-010	1.84369e-010	1.74707e-010	1.66033e-010	1.57535e-010	1.49386e-010	1.42161e-010	1.3502e-010	1.28598e-010	1.22643e-010	1.16744e-010	1.11308e-010	1.06278e-010	1.01532e-010	
CoarseR250	4.693e-011	8.47625e-011	1.13048e-010	1.36833e-010	1.56924e-010	1.73519e-010	1.87002e-010	1.97692e-010	2.05567e-010	2.10496e-010	2.12416e-010	2.08395e-010	1.99186e-010	1.89302e-010	1.79707e-010	1.70958e-010	1.62752e-010	1.54917e-010	1.4776e-010	1.40772e-010	1.34276e-010	1.28411e-010	1.22624e-010	1.17129e-010	1.12257e-010	1.07672e-010	
MinCout:	-9.73937e-014	CoarseR:	80	CoarseC:	130

	CoarseC40	CoarseC41	CoarseC42	CoarseC43	CoarseC44	CoarseC45	CoarseC46	CoarseC47	CoarseC48	CoarseC49	CoarseC50	CoarseC51	CoarseC52	CoarseC53	CoarseC54	CoarseC55	CoarseC56	CoarseC57	CoarseC58	CoarseC59	CoarseC60	
CoarseR100	-3.82771e-011	-3.6277e-011	-3.42939e-011	-3.2285e-011	-3.04691e-011	-2.86272e-011	-2.67799e-011	-2.51248e-011	-2.31306e-011	-2.14455e-011	-1.97614e-011	-1.82897e-011	-1.64771e-011	-1.49541e-011	-1.32829e-011	-1.16326e-011	-1.02735e-011	-8.59703e-012	-7.25542e-012	-5.59513e-012	-4.24939e-012	
CoarseR101	-3.57294e-011	-3.39207e-011	-3.17472e-011	-2.99337e-011	-2.79471e-011	-2.61053e-011	-2.42847e-011	-2.25812e-011	-2.06101e-011	-1.89282e-011	-1.72442e-011	-1.59182e-011	-1.39366e-011	-1.24144e-011	-1.07672e-011	-9.43254e-012	-7.73579e-012	-6.25165e-012	-4.74107e-012	-3.3983e-012	-1.90393e-012	
CoarseR102	-3.32196e-011	-3.13592e-011	-2.93777e-011	-2.75657e-011	-2.55791e-011	-2.37382e-011	-2.19178e-011	-2.02407e-011	-1.84133e-011	-1.67319e-011	-1.50711e-011	-1.33855e-011	-1.15728e-011	-1.00762e-011	-8.40599e-012	-6.90206e-012	-5.39881e-012	-3.89036e-012	-2.38275e-012	-8.69806e-013	4.73658e-013	
CoarseR103	-3.08347e-011	-2.90284e-011	-2.70228e-011	-2.50152e-011	-2.30555e-011	-2.1357e-011	-1.93685e-011	-1.76918e-011	-1.58653e-011	-1.41844e-011	-1.25484e-011	-1.10325e-011	-9.2203e-012	-7.53047e-012	-6.0297e-012	-4.55091e-012	-2.85468e-012	-1.51792e-012	1.60371e-013	1.50122e-012	2.99418e-012	
CoarseR104	-2.84379e-011	-2.64627e-011	-2.44577e-011	-2.24504e-011	-2.06607e-011	-1.88192e-011	-1.69745e-011	-1.53217e-011	-1.35203e-011	-1.18395e-011	-1.01567e-011	-8.47176e-012	-6.66017e-012	-5.14083e-012	-3.66404e-012	-1.97028e-012	-6.3653e-013	1.03918e-012	2.37707e-012	3.8646e-012	5.37813e-012	
CoarseR105	-2.60771e-011	-2.40746e-011	-2.20968e-011	-2.04275e-011	-1.84184e-011	-1.6433e-011	-1.47831e-011	-1.31308e-011	-1.12822e-011	-9.602e-012	-7.9428e-012	-6.28202e-012	-4.61732e-012	-2.95151e-012	-1.28276e-012	4.81131e-014	1.74346e-012	3.24795e-012	4.56317e-012	6.09539e-012	7.58483e-012	
CoarseR106	-2.38456e-011	-2.18437e-011	-1.98642e-011	-1.80298e-011	-1.60452e-011	-1.43742e-011	-1.23861e-011	-1.07343e-011	-8.73983e-012	-7.22916e-012	-5.54722e-012	-3.86321e-012	-2.07621e-012	-7.27508e-013	9.40641e-013	2.61112e-012	3.94345e-012	5.4696e-012	6.95535e-012	8.48535e-012	9.97627e-012	
CoarseR107	-2.12887e-011	-1.94297e-011	-1.74526e-011	-1.56431e-011	-1.36588e-011	-1.18175e-011	-1.01436e-011	-8.49264e-012	-6.49962e-012	-4.82006e-012	-3.18526e-012	-1.84146e-012	1.84848e-013	1.50947e-012	3.17683e-012	4.84653e-012	6.17802e-012	7.85235e-012	9.18836e-012	1.05255e-011	1.21858e-011	
CoarseR108	-1.90542e-011	-1.72506e-011	-1.52467e-011	-1.33841e-011	-1.14265e-011	-9.73103e-012	-7.74364e-012	-6.09323e-012	-4.27101e-012	-2.78508e-012	-1.10378e-012	5.79614e-013	2.19522e-012	3.90636e-012	5.57328e-012	6.87912e-012	8.57357e-012	9.90568e-012	1.14115e-011	1.2749e-011	1.42592e-011	
CoarseR109	-1.69818e-011	-1.51487e-011	-1.31458e-011	-1.13377e-011	-9.35472e-012	-7.68506e-012	-5.86617e-012	-4.19223e-012	-2.19983e-012	-5.21287e-013	1.13561e-012	2.64848e-012	4.45665e-012	5.95025e-012	7.44658e-012	9.13841e-012	1.06167e-011	1.19707e-011	1.36687e-011	1.49606e-011	1.64707e-011	
CoarseR110	-1.47213e-011	-1.27477e-011	-1.09165e-011	-9.10564e-012	-7.09829e-012	-5.26043e-012	-3.41753e-012	-1.76855e-012	2.23721e-013	1.7322e-012	3.38836e-012	4.72935e-012	6.70797e-012	8.03066e-012	9.71851e-012	1.13646e-011	1.26927e-011	1.42169e-011	1.57223e-011	1.7207e-011	1.85456e-011	
CoarseR111	-1.24796e-011	-1.0454e-011	-8.64624e-012	-6.83926e-012	-4.85732e-012	-3.04173e-012	-1.34605e-012	3.02313e-013	2.2944e-012	3.97217e-012	5.62799e-012	7.13997e-012	8.77648e-012	1.0463e-011	1.17638e-011	1.34314e-011	1.49533e-011	1.64329e-011	1.79588e-011	1.92944e-011	2.06298e-011	
CoarseR112	-1.02258e-011	-8.39461e-012	-6.39242e-012	-4.38845e-012	-2.77321e-012	-9.33172e-013	9.0636e-013	2.55432e-012	4.40049e-012	6.05412e-012	7.73242e-012	9.22085e-012	1.10272e-011	1.25428e-011	1.40355e-011	1.55314e-011	1.71794e-011	1.85311e-011	1.98639e-011	2.13681e-011	2.28776e-011	
CoarseR113	-8.12757e-012	-6.2968e-012	-4.29548e-012	-2.48966e-012	-4.83408e-013	1.15903e-012	3.00064e-012	4.67273e-012	6.46974e-012	8.1465e-012	9.80096e-012	1.13118e-011	1.31414e-011	1.46343e-011	1.62983e-011	1.76214e-011	1.92925e-011	2.06199e-011	2.21447e-011	2.34557e-011	2.49644e-011	
CoarseR114	-6.01799e-012	-4.0194e-012	-2.01851e-012	-3.81956e-013	1.59882e-012	3.29071e-012	5.10733e-012	6.75382e-012	8.74529e-012	1.02749e-011	1.19284e-011	1.34159e-011	1.52451e-011	1.67352e-011	1.82261e-011	1.97444e-011	2.13913e-011	2.27412e-011	2.42214e-011	2.55752e-011	2.70602e-011	
CoarseR115	-3.72853e-012	-2.07178e-012	-9.70117e-014	1.73716e-012	3.71742e-012	5.4085e-012	7.39401e-012	8.89553e-012	1.06883e-011	1.23642e-011	1.3872e-011	1.55274e-011	1.71608e-011	1.8699e-011	2.03614e-011	2.20052e-011	2.33523e-011	2.48296e-011	2.61807e-011	2.76627e-011	2.91668e-011	
CoarseR116	-1.79509e-012	2.29286e-013	2.03433e-012	3.83827e-012	5.84327e-012	7.68278e-012	9.32559e-012	1.09945e-011	1.28154e-011	1.44906e-011	1.61431e-011	1.76523e-011	1.92628e-011	2.07762e-011	2.24628e-011	2.39542e-011	2.54527e-011	2.6777e-011	2.828e-011	2.97815e-011	3.12651e-011	
CoarseR117	3.42935e-013	2.17275e-012	4.14576e-012	5.95399e-012	7.78488e-012	9.62417e-012	1.12663e-011	1.31102e-011	1.4925e-011	1.64297e-011	1.81067e-011	1.9568e-011	2.12466e-011	2.29088e-011	2.4399e-011	2.6042e-011	2.73877e-011	2.89085e-011	3.02137e-011	3.18871e-011	3.32211e-011	
CoarseR118	2.27034e-012	4.26859e-012	6.09924e-012	8.10079e-012	9.73713e-012	1.15741e-011	1.35848e-011	1.50613e-011	1.68751e-011	1.83793e-011	2.00304e-011	2.15385e-011	2.35392e-011	2.48562e-011	2.63457e-011	2.8009e-011	2.95068e-011	3.08292e-011	3.23514e-011	3.3658e-011	3.5357e-011	
CoarseR119	4.4038e-012	6.23173e-012	8.23046e-012	1.00645e-011	1.18937e-011	1.3706e-011	1.53467e-011	1.71902e-011	1.8836e-011	2.04843e-011	2.199e-011	2.36684e-011	2.52987e-011	2.68105e-011	2.84707e-011	2.9941e-011	3.12849e-011	3.28046e-011	3.41079e-011	3.57605e-011	3.71126e-011	
CoarseR120	6.37799e-012	8.20512e-012	1.02031e-011	1.18353e-011	1.3814e-011	1.56501e-011	1.729e-011	1.89588e-011	2.07751e-011	2.24259e-011	2.3931e-011	2.54379e-011	2.72383e-011	2.87496e-011	3.04134e-011	3.19038e-011	3.32467e-011	3.47211e-011	3.6068e-011	3.77201e-011	3.9047e-011	
MinCout:	4.81131e-014	CoarseR:	105	CoarseC:	55

	FineC0	FineC10	FineC20	FineC30	FineC40	FineC50	FineC60	FineC70	FineC80	FineC90	FineC100	FineC110	FineC120	FineC130	FineC140	FineC150	FineC160	FineC170	FineC180	FineC190	FineC200	FineC210	FineC220	FineC230	FineC240	FineC250	
FineR0	-1.34799e-010	-1.08196e-010	-9.20507e-011	-8.03135e-011	-7.13455e-011	-6.41975e-011	-5.84404e-011	-5.37039e-011	-4.97684e-011	-4.64213e-011	-4.35011e-011	-4.12431e-011	-3.91084e-011	-3.71393e-011	-3.54411e-011	-3.40949e-011	-3.27098e-011	-3.14886e-011	-3.04161e-011	-2.95165e-011	-2.85922e-011	-2.7856e-011	-2.70812e-011	-2.62867e-011	-2.56993e-011	-2.49067e-011	
FineR10	-1.18057e-010	-9.17141e-011	-7.55531e-011	-6.41554e-011	-5.50632e-011	-4.8111e-011	-4.2307e-011	-3.77708e-011	-3.38136e-011	-3.06162e-011	-2.77211e-011	-2.52795e-011	-2.31455e-011	-2.11579e-011	-1.96733e-011	-1.79518e-011	-1.69274e-011	-1.57093e-011	-1.44933e-011	-1.35719e-011	-1.26491e-011	-1.18953e-011	-1.11414e-011	-1.03666e-011	-9.76103e-012	-9.13657e-012	
FineR20	-1.10717e-010	-8.47495e-011	-6.83954e-011	-5.68131e-011	-4.78627e-011	-4.0895e-011	-3.52885e-011	-3.06145e-011	-2.66385e-011	-2.3299e-011	-2.05759e-011	-1.81366e-011	-1.60087e-011	-1.41897e-011	-1.26863e-011	-1.11578e-011	-9.77529e-012	-8.55926e-012	-7.49077e-012	-6.61366e-012	-5.69204e-012	-4.7484e-012	-4.01744e-012	-3.39201e-012	-2.76863e-012	-2.16302e-012	
FineR30	-1.06503e-010	-8.05146e-011	-6.43423e-011	-5.26584e-011	-4.3687e-011	-3.67207e-011	-3.10943e-011	-2.63976e-011	-2.24487e-011	-1.92805e-011	-1.63917e-011	-1.41018e-011	-1.19985e-011	-1.00142e-011	-8.3422e-012	-6.81475e-012	-5.62417e-012	-4.38855e-012	-3.34335e-012	-2.25278e-012	-1.35366e-012	-6.03179e-013	-3.30503e-016	7.51874e-013	1.54706e-012	2.001e-012	
FineR40	-1.03808e-010	-7.78885e-011	-6.16837e-011	-4.99456e-011	-4.10058e-011	-3.38775e-011	-2.82779e-011	-2.37265e-011	-1.97799e-011	-1.642e-011	-1.3702e-011	-1.12914e-011	-8.99687e-012	-7.35276e-012	-5.68101e-012	-4.15454e-012	-2.77364e-012	-1.55988e-012	-6.64451e-013	4.03749e-013	1.1523e-012	2.07359e-012	2.82441e-012	3.42743e-012	4.22231e-012	4.65492e-012	
FineR50	-1.01895e-010	-7.59822e-011	-5.97815e-011	-4.80461e-011	-3.91088e-011	-3.21195e-011	-2.65265e-011	-2.16405e-011	-1.78873e-011	-1.46982e-011	-1.19816e-011	-9.40242e-012	-7.25456e-012	-5.44161e-012	-3.77199e-012	-2.4383e-012	-1.05787e-012	1.5524e-013	1.24187e-012	2.30961e-012	3.20778e-012	3.95706e-012	4.55866e-012	5.3316e-012	5.93491e-012	6.53742e-012	
FineR60	-1.00526e-010	-7.44223e-011	-5.82557e-011	-4.66924e-011	-3.75884e-011	-3.07704e-011	-2.4982e-011	-2.04862e-011	-1.65423e-011	-1.32098e-011	-1.04689e-011	-8.20561e-012	-6.08271e-012	-4.10076e-012	-2.45381e-012	-9.28304e-013	4.51843e-013	1.49339e-012	2.559e-012	3.47681e-012	4.39594e-012	5.29521e-012	6.06672e-012	6.83909e-012	7.27046e-012	8.06579e-012	
FineR70	-9.94112e-011	-7.3411e-011	-5.70874e-011	-4.56864e-011	-3.65871e-011	-2.96354e-011	-2.40175e-011	-1.93286e-011	-1.55283e-011	-1.22216e-011	-9.50676e-012	-6.92895e-012	-4.78236e-012	-3.11766e-012	-1.44918e-012	7.53438e-014	1.43239e-012	2.62238e-012	3.88001e-012	4.77566e-012	5.69465e-012	6.27283e-012	7.02294e-012	7.79508e-012	8.41917e-012	9.02142e-012	
FineR80	-9.86221e-011	-7.24879e-011	-5.63005e-011	-4.47438e-011	-3.58102e-011	-2.86619e-011	-2.30736e-011	-1.85534e-011	-1.46103e-011	-1.12801e-011	-8.5415e-012	-6.13464e-012	-3.98895e-012	-2.03081e-012	-5.10009e-013	9.91741e-013	2.22293e-012	3.5826e-012	4.47616e-012	5.56477e-012	6.44018e-012	7.21031e-012	7.9813e-012	8.58271e-012	9.3563e-012	9.80856e-012	
FineR90	-9.80346e-011	-7.17036e-011	-5.57101e-011	-4.41558e-011	-3.50591e-011	-2.80774e-011	-2.24881e-011	-1.7634e-011	-1.3861e-011	-1.05062e-011	-7.79283e-012	-5.21611e-012	-3.41053e-012	-1.43e-012	2.60715e-013	1.78454e-012	3.11874e-012	4.15903e-012	5.22364e-012	6.14066e-012	7.05901e-012	7.97948e-012	8.72854e-012	9.35156e-012	9.9312e-012	1.07262e-011	
FineR100	-9.74365e-011	-7.11406e-011	-5.49576e-011	-4.35954e-011	-3.44731e-011	-2.73268e-011	-2.1907e-011	-1.70515e-011	-1.32794e-011	-9.95022e-012	-7.21254e-012	-4.80584e-012	-2.68451e-012	-8.51056e-013	8.16576e-013	2.31779e-012	3.6967e-012	4.73668e-012	5.97145e-012	6.71786e-012	7.80647e-012	8.53442e-012	9.30522e-012	1.00769e-011	1.05076e-011	1.13025e-011	
FineR110	-9.67128e-011	-7.05856e-011	-5.45649e-011	-4.28431e-011	-3.39175e-011	-2.69656e-011	-2.11538e-011	-1.66631e-011	-1.28658e-011	-9.56268e-012	-6.82539e-012	-4.24945e-012	-2.1046e-012	-3.17538e-013	1.37296e-012	2.87397e-012	4.08237e-012	5.29256e-012	6.35679e-012	7.44509e-012	8.19156e-012	9.11094e-012	9.69004e-012	1.04616e-011	1.12558e-011	1.16871e-011	
FineR120	-9.6317e-011	-7.0353e-011	-5.40037e-011	-4.26163e-011	-3.35231e-011	-2.64066e-011	-2.07895e-011	-1.62725e-011	-1.23092e-011	-9.14882e-012	-6.26802e-012	-3.86178e-012	-1.71742e-012	6.91368e-014	1.90695e-012	3.13465e-012	4.49011e-012	5.84912e-012	6.95716e-012	7.82992e-012	8.7267e-012	9.47428e-012	1.02463e-011	1.08456e-011	1.16397e-011	1.20709e-011	
FineR130	-9.61117e-011	-6.97902e-011	-5.38028e-011	-4.20832e-011	-3.33246e-011	-2.61547e-011	-2.04258e-011	-1.5884e-011	-1.19454e-011	-8.761e-012	-6.07339e-012	-3.47412e-012	-1.35357e-012	4.79157e-013	2.14587e-012	3.64617e-012	4.85398e-012	6.08612e-012	7.14973e-012	8.19386e-012	8.9401e-012	9.88133e-012	1.06517e-011	1.12315e-011	1.18532e-011	1.24567e-011	
FineR140	-9.57485e-011	-6.9596e-011	-5.34392e-011	-4.1889e-011	-3.29043e-011	-2.57908e-011	-2.00345e-011	-1.552e-011	-1.17241e-011	-8.39617e-012	-5.51543e-012	-3.1101e-012	-1.13604e-012	6.72875e-013	2.50995e-012	4.03302e-012	5.21805e-012	6.45023e-012	7.51385e-012	8.40778e-012	9.32543e-012	1.02455e-011	1.09938e-011	1.16164e-011	1.21955e-011	1.28195e-011	
FineR150	-9.55019e-011	-6.92253e-011	-5.32395e-011	-4.15209e-011	-3.2537e-011	-2.54501e-011	-1.98383e-011	-1.5298e-011	-1.13588e-011	-8.03201e-012	-5.29659e-012	-3.0619e-012	-9.65502e-013	1.03695e-012	2.70349e-012	4.22638e-012	5.43338e-012	6.64328e-012	7.87731e-012	8.77113e-012	9.68974e-012	1.02662e-011	1.12084e-011	1.19795e-011	1.24098e-011	1.30101e-011	
FineR160	-9.52648e-011	-6.90239e-011	-5.30109e-011	-4.14863e-011	-3.23692e-011	-2.52532e-011	-1.96167e-011	-1.49322e-011	-1.11646e-011	-7.83708e-012	-5.12632e-012	-2.69733e-012	-5.77754e-013	1.23077e-012	3.06753e-012	4.59029e-012	5.79767e-012	7.00695e-012	8.07032e-012	8.98635e-012	9.90371e-012	1.08014e-011	1.15716e-011	1.2172e-011	1.2751e-011	1.32024e-011	
FineR170	-9.50938e-011	-6.88223e-011	-5.28398e-011	-4.11236e-011	-3.21682e-011	-2.50562e-011	-1.92757e-011	-1.47363e-011	-1.09681e-011	-7.64206e-012	-4.93164e-012	-2.50293e-012	-3.83611e-013	1.59506e-012	3.26124e-012	4.61306e-012	5.96833e-012	7.22197e-012	8.26341e-012	9.15696e-012	1.00743e-011	1.08433e-011	1.17643e-011	1.23645e-011	1.29641e-011	1.33948e-011	
FineR180	-9.48897e-011	-6.86207e-011	-5.26057e-011	-4.08931e-011	-3.18053e-011	-2.48591e-011	-1.90793e-011	-1.45653e-011	-1.07726e-011	-7.47116e-012	-4.76078e-012	-2.1389e-012	-1.894e-013	1.61866e-012	3.45462e-012	4.99976e-012	6.16176e-012	7.37086e-012	8.45659e-012	9.35e-012	1.02672e-011	1.1208e-011	1.19349e-011	1.25572e-011	1.31786e-011	1.35873e-011	
FineR190	-9.45608e-011	-6.86189e-011	-5.24686e-011	-4.07219e-011	-3.16074e-011	-2.4688e-011	-1.90782e-011	-1.43694e-011	-1.04334e-011	-7.25111e-012	-4.54163e-012	-1.94421e-012	1.74793e-013	1.81247e-012	3.64847e-012	5.17055e-012	6.37732e-012	7.58603e-012	8.64888e-012	9.52069e-012	1.04602e-011	1.13787e-011	1.21264e-011	1.27279e-011	1.33493e-011	1.39508e-011	
FineR200	-9.45589e-011	-6.82497e-011	-5.22703e-011	-4.07203e-011	-3.16059e-011	-2.46322e-011	-1.88797e-011	-1.4342e-011	-1.02368e-011	-7.08011e-012	-4.37068e-012	-1.77327e-012	1.75247e-013	2.15354e-012	3.64885e-012	5.1932e-012	6.54812e-012	7.75745e-012	8.81964e-012	9.88439e-012	1.06522e-011	1.13997e-011	1.21486e-011	1.29193e-011	1.33698e-011	1.41435e-011	
FineR210	-9.4345e-011	-6.82478e-011	-5.2099e-011	-4.03533e-011	-3.14048e-011	-2.42949e-011	-1.88785e-011	-1.39783e-011	-1.02358e-011	-6.88568e-012	-4.17648e-012	-1.77264e-012	3.69633e-013	2.32444e-012	3.84236e-012	5.53481e-012	6.57047e-012	7.92826e-012	8.8414e-012	9.92831e-012	1.0824e-011	1.15705e-011	1.23401e-011	1.29192e-011	1.37128e-011	1.43127e-011	
FineR220	-9.41853e-011	-6.80391e-011	-5.20631e-011	-4.03516e-011	-3.14001e-011	-2.42911e-011	-1.85131e-011	-1.39758e-011	-1.02093e-011	-6.85994e-012	-3.98116e-012	-1.5786e-012	5.40003e-013	2.34791e-012	4.03592e-012	5.55749e-012	6.91154e-012	7.9503e-012	9.20517e-012	9.90602e-012	1.09936e-011	1.15693e-011	1.25122e-011	1.32829e-011	1.37113e-011	1.45054e-011	
FineR230	-9.41407e-011	-6.78697e-011	-5.16952e-011	-4.03182e-011	-3.12335e-011	-2.42613e-011	-1.84846e-011	-1.39483e-011	-9.84445e-012	-6.71313e-012	-3.8109e-012	-1.40752e-012	7.34329e-013	2.54163e-012	4.03638e-012	5.55725e-012	6.91187e-012	8.12025e-012	9.18283e-012	1.00982e-011	1.11866e-011	1.19343e-011	1.25331e-011	1.33036e-011	1.3882e-011	1.45054e-011	
FineR240	-9.41292e-011	-6.78678e-011	-5.18577e-011	-3.99512e-011	-3.08671e-011	-2.38955e-011	-1.83146e-011	-1.36082e-011	-9.86805e-012	-6.51864e-012	-3.8101e-012	-1.38301e-012	7.34962e-013	2.51885e-012	4.37731e-012	5.92189e-012	7.10525e-012	8.33626e-012	9.37603e-012	1.027e-011	1.11868e-011	1.19554e-011	1.28538e-011	1.32815e-011	1.40749e-011	1.45054e-011	
FineR250	-9.39694e-011	-6.76678e-011	-5.16863e-011	-3.99772e-011	-3.08357e-011	-2.39201e-011	-1.83133e-011	-1.36071e-011	-9.67328e-012	-6.51773e-012	-3.8093e-012	-1.21274e-012	9.28865e-013	2.54239e-012	4.40097e-012	5.89936e-012	7.10563e-012	8.33566e-012	9.3763e-012	1.04631e-011	1.12082e-011	1.21051e-011	1.28747e-011	1.36452e-011	1.40749e-011	1.48691e-011	
MinCout:	-3.30503e-016	FineR:	30	FineC:	220

	FineC120	FineC121	FineC122	FineC123	FineC124	FineC125	FineC126	FineC127	FineC128	FineC129	FineC130	FineC131	FineC132	FineC133	FineC134	FineC135	FineC136	FineC137	FineC138	FineC139	FineC140	
FineR100	-2.85438e-012	-2.51434e-012	-2.39067e-012	-2.24382e-012	-1.90367e-012	-1.77979e-012	-1.60974e-012	-1.4627e-012	-9.98257e-013	-9.98257e-013	-8.74014e-013	-7.03804e-013	-3.86279e-013	-2.38919e-013	-6.86148e-014	5.59538e-014	2.03467e-013	3.73684e-013	4.98465e-013	6.46107e-013	8.16576e-013	
FineR101	-2.68451e-012	-2.51434e-012	-2.36756e-012	-2.05055e-012	-1.90367e-012	-1.75673e-012	-1.60974e-012	-1.2925e-012	-1.14541e-012	-9.98257e-013	-6.80845e-013	-5.33588e-013	-3.86279e-013	-2.38919e-013	-9.15085e-014	7.87248e-014	2.03336e-013	3.50875e-013	5.21282e-013	6.68903e-013	9.86837e-013	
FineR102	-2.6379e-012	-2.34443e-012	-2.19763e-012	-2.05055e-012	-1.90367e-012	-1.58672e-012	-1.43955e-012	-1.26949e-012	-9.98318e-013	-8.28146e-013	-6.57887e-013	-5.1065e-013	-3.63362e-013	-4.57945e-014	-6.86917e-014	7.87248e-014	2.26193e-013	5.43956e-013	6.91532e-013	8.39159e-013	9.86837e-013	
FineR103	-2.49117e-012	-2.34443e-012	-2.19763e-012	-1.88058e-012	-1.73368e-012	-1.58672e-012	-1.2695e-012	-1.12243e-012	-9.75315e-013	-8.28146e-013	-6.80925e-013	-3.63417e-013	-3.8636e-013	-2.16057e-013	-6.86917e-014	2.48958e-013	3.96431e-013	3.73574e-013	7.14348e-013	6.91532e-013	1.00941e-012	
FineR104	-2.66105e-012	-2.34443e-012	-2.02744e-012	-2.05056e-012	-1.71041e-012	-1.58672e-012	-1.2695e-012	-1.29254e-012	-9.52208e-013	-6.34868e-013	-6.57845e-013	-5.33657e-013	-3.8636e-013	-2.29173e-014	1.0154e-013	2.48976e-013	3.96464e-013	3.96431e-013	7.142e-013	8.61781e-013	9.86709e-013	
FineR105	-2.4677e-012	-2.321e-012	-2.19739e-012	-1.85725e-012	-1.71039e-012	-1.56348e-012	-1.41651e-012	-1.2695e-012	-9.75242e-013	-8.28098e-013	-6.5792e-013	-4.87676e-013	-1.9318e-013	-4.58457e-014	1.0154e-013	2.48976e-013	4.19191e-013	5.6667e-013	6.91425e-013	8.39041e-013	1.20247e-012	
FineR106	-2.4677e-012	-2.321e-012	-2.00406e-012	-1.85725e-012	-1.71039e-012	-1.56348e-012	-1.24631e-012	-1.09929e-012	-9.52218e-013	-6.34875e-013	-4.87694e-013	-3.40463e-013	-1.9318e-013	-4.58457e-014	2.71788e-013	2.71788e-013	3.96347e-013	5.66723e-013	8.84532e-013	1.03213e-012	1.17979e-012	
FineR107	-2.29777e-012	-2.12766e-012	-1.98092e-012	-1.88058e-012	-1.5402e-012	-1.39343e-012	-1.22325e-012	-9.29081e-013	-7.82003e-013	-6.34875e-013	-4.64711e-013	-3.175e-013	0	1.4732e-013	1.24397e-013	2.71788e-013	5.66653e-013	7.36982e-013	8.84532e-013	1.03213e-012	1.37286e-012	
FineR108	-2.29777e-012	-2.15105e-012	-2.00427e-012	-1.68724e-012	-1.54036e-012	-1.39343e-012	-1.07622e-012	-9.2918e-013	-7.82087e-013	-6.34944e-013	-3.17503e-013	-1.70251e-013	-1.70231e-013	-4.5897e-014	2.94668e-013	4.42035e-013	5.89542e-013	7.37055e-013	8.8462e-013	1.20253e-012	1.1797e-012	
FineR109	-2.1278e-012	-1.95768e-012	-1.81092e-012	-1.68724e-012	-1.54036e-012	-1.20012e-012	-1.07622e-012	-9.06131e-013	-6.11853e-013	-4.64703e-013	-4.64703e-013	-3.40492e-013	-1.9322e-013	1.70237e-013	2.94668e-013	4.42079e-013	6.12366e-013	9.07334e-013	1.0549e-012	1.03206e-012	1.20253e-012	
FineR110	-2.10439e-012	-2.15099e-012	-1.66404e-012	-1.49391e-012	-1.51704e-012	-1.37015e-012	-1.22321e-012	-9.05997e-013	-5.88824e-013	-6.11853e-013	-4.64703e-013	-1.47257e-013	0	1.47308e-013	2.94668e-013	6.12347e-013	7.59815e-013	7.59815e-013	9.07334e-013	1.0549e-012	1.37282e-012	
FineR111	-2.25104e-012	-2.12758e-012	-1.83402e-012	-1.66387e-012	-1.51704e-012	-1.19994e-012	-1.05299e-012	-9.05997e-013	-7.5895e-013	-4.41618e-013	-2.94463e-013	-1.47257e-013	0	3.17565e-013	4.87859e-013	6.35256e-013	6.12347e-013	7.59815e-013	1.07761e-012	1.22519e-012	1.37282e-012	
FineR112	-2.10428e-012	-1.95759e-012	-1.81084e-012	-1.6872e-012	-1.3237e-012	-1.20006e-012	-1.0531e-012	-7.12704e-013	-6.11834e-013	-4.18589e-013	-2.71454e-013	-1.47272e-013	1.9322e-013	3.40514e-013	4.87859e-013	4.64931e-013	9.52977e-013	9.30089e-013	1.07761e-012	1.24804e-012	1.39564e-012	
FineR113	-2.10428e-012	-1.95759e-012	-1.64062e-012	-1.49382e-012	-1.34696e-012	-1.20006e-012	-8.82861e-013	-7.12704e-013	-5.88779e-013	-4.41661e-013	-1.24232e-013	4.59775e-014	1.70272e-013	3.40514e-013	2.94646e-013	6.35193e-013	8.05524e-013	9.52977e-013	1.10048e-012	1.41832e-012	1.37277e-012	
FineR114	-2.08107e-012	-1.76418e-012	-1.61745e-012	-1.47066e-012	-1.32383e-012	-1.00671e-012	-8.59766e-013	-7.12771e-013	-3.95475e-013	-2.48372e-013	-1.01217e-013	4.59885e-014	1.9326e-013	3.40543e-013	4.87877e-013	6.35263e-013	7.82699e-013	9.30187e-013	1.24803e-012	1.24789e-012	1.39562e-012	
FineR115	-1.91086e-012	-1.76418e-012	-1.61745e-012	-1.47066e-012	-1.1536e-012	-1.00671e-012	-8.59766e-013	-7.12771e-013	-3.95475e-013	-4.1853e-013	-1.01217e-013	4.60288e-014	1.9326e-013	3.40543e-013	4.87877e-013	6.35263e-013	9.52988e-013	1.12337e-012	1.2709e-012	1.24803e-012	1.56593e-012	
FineR116	-1.91105e-012	-1.76418e-012	-1.61761e-012	-1.30044e-012	-1.1536e-012	-1.00671e-012	-8.59592e-013	-5.42527e-013	-3.95475e-013	-4.1853e-013	-1.01151e-013	4.60288e-014	1.9326e-013	3.63517e-013	6.81108e-013	8.28479e-013	9.75901e-013	1.12337e-012	1.27077e-012	1.41832e-012	1.56593e-012	
FineR117	-2.08094e-012	-1.59413e-012	-1.61733e-012	-1.47055e-012	-1.32373e-012	-8.36553e-013	-8.36477e-013	-7.1269e-013	-2.02171e-013	-2.48298e-013	-7.8117e-014	6.90431e-014	2.16255e-013	5.33789e-013	6.81108e-013	8.28479e-013	9.75901e-013	1.29367e-012	1.29367e-012	1.4412e-012	1.58878e-012	
FineR118	-1.91072e-012	-1.76405e-012	-1.61733e-012	-1.27702e-012	-1.15349e-012	-1.00661e-012	-8.59674e-013	-5.42431e-013	-3.72283e-013	-2.25226e-013	-1.01155e-013	2.3934e-013	3.63572e-013	5.10875e-013	6.81189e-013	9.98877e-013	9.75938e-013	1.1234e-012	1.29367e-012	1.4412e-012	1.73642e-012	
FineR119	-1.88748e-012	-1.76405e-012	-1.42389e-012	-1.30032e-012	-1.15349e-012	-1.00661e-012	-6.89421e-013	-5.42431e-013	-3.95391e-013	-7.80289e-014	9.21602e-014	2.1632e-013	3.86572e-013	5.33855e-013	6.81167e-013	8.51386e-013	9.75938e-013	1.1234e-012	1.46396e-012	1.5888e-012	1.78194e-012	
FineR120	-1.88748e-012	-1.5706e-012	-1.42389e-012	-1.27714e-012	-9.60085e-013	-8.13218e-013	-6.663e-013	-5.19331e-013	-2.25127e-013	-5.49687e-014	9.21602e-014	2.3934e-013	5.56858e-013	5.33858e-013	6.81167e-013	8.28527e-013	1.16918e-012	1.29371e-012	1.46413e-012	1.61168e-012	1.5888e-012	
MinCout:	0	FineR:	107	FineC:	132

