	CoarseC0	CoarseC10	CoarseC20	CoarseC30	CoarseC40	CoarseC50	CoarseC60	CoarseC70	CoarseC80	CoarseC90	CoarseC100	CoarseC110	CoarseC120	CoarseC130	CoarseC140	CoarseC150	CoarseC160	CoarseC170	CoarseC180	CoarseC190	CoarseC200	CoarseC210	CoarseC220	CoarseC230	CoarseC240	CoarseC250	
CoarseR0	-1.08539e-009	-1.0409e-009	-9.9746e-010	-9.6022e-010	-9.29063e-010	-9.02422e-010	-8.79505e-010	-8.60084e-010	-8.43018e-010	-8.28251e-010	-8.15295e-010	-8.04111e-010	-7.94272e-010	-7.85573e-010	-7.7781e-010	-7.71073e-010	-7.6525e-010	-7.60151e-010	-7.5537e-010	-7.51655e-010	-7.48076e-010	-7.45013e-010	-7.42497e-010	-7.40511e-010	-7.38487e-010	-7.37144e-010	
CoarseR10	-8.09947e-010	-7.61978e-010	-7.215e-010	-6.87366e-010	-6.58419e-010	-6.33639e-010	-6.1243e-010	-5.94109e-010	-5.78075e-010	-5.64043e-010	-5.51805e-010	-5.41067e-010	-5.31573e-010	-5.23387e-010	-5.16178e-010	-5.09769e-010	-5.04221e-010	-4.99761e-010	-4.95775e-010	-4.92878e-010	-4.90188e-010	-4.87841e-010	-4.8626e-010	-4.84827e-010	-4.84025e-010	-4.83504e-010	
CoarseR20	-6.36065e-010	-5.87217e-010	-5.48907e-010	-5.16858e-010	-4.89717e-010	-4.66177e-010	-4.46031e-010	-4.28577e-010	-4.13451e-010	-3.99977e-010	-3.88491e-010	-3.78556e-010	-3.69967e-010	-3.62387e-010	-3.55989e-010	-3.50632e-010	-3.45857e-010	-3.41984e-010	-3.38825e-010	-3.36089e-010	-3.34078e-010	-3.32453e-010	-3.31314e-010	-3.30631e-010	-3.30388e-010	-3.30615e-010	
CoarseR30	-5.13042e-010	-4.65572e-010	-4.29267e-010	-3.98677e-010	-3.72605e-010	-3.50139e-010	-3.31087e-010	-3.14339e-010	-3.00131e-010	-2.87712e-010	-2.76828e-010	-2.67687e-010	-2.59734e-010	-2.52811e-010	-2.47042e-010	-2.42126e-010	-2.38111e-010	-2.34815e-010	-2.3216e-010	-2.30143e-010	-2.28536e-010	-2.27667e-010	-2.27381e-010	-2.27505e-010	-2.27907e-010	-2.28916e-010	
CoarseR40	-4.22086e-010	-3.75665e-010	-3.40775e-010	-3.1148e-010	-2.86497e-010	-2.65038e-010	-2.46819e-010	-2.3078e-010	-2.17323e-010	-2.05646e-010	-1.9562e-010	-1.86888e-010	-1.79321e-010	-1.73114e-010	-1.67868e-010	-1.63631e-010	-1.60123e-010	-1.57473e-010	-1.55402e-010	-1.5417e-010	-1.53542e-010	-1.53498e-010	-1.53835e-010	-1.5475e-010	-1.56437e-010	-1.58544e-010	
CoarseR50	-3.51627e-010	-3.06821e-010	-2.72922e-010	-2.44678e-010	-2.20424e-010	-1.9977e-010	-1.82433e-010	-1.67038e-010	-1.54082e-010	-1.43065e-010	-1.33528e-010	-1.25454e-010	-1.18518e-010	-1.13054e-010	-1.08324e-010	-1.04579e-010	-1.01861e-010	-9.99033e-011	-9.86021e-011	-9.78825e-011	-9.82091e-011	-9.91209e-011	-1.00407e-010	-1.02787e-010	-1.05402e-010	-1.08731e-010	
CoarseR60	-2.94913e-010	-2.51583e-010	-2.18446e-010	-1.90843e-010	-1.67765e-010	-1.47919e-010	-1.30818e-010	-1.16212e-010	-1.03864e-010	-9.31504e-011	-8.4196e-011	-7.67485e-011	-7.04627e-011	-6.53284e-011	-6.11796e-011	-5.80983e-011	-5.60418e-011	-5.47032e-011	-5.43583e-011	-5.47952e-011	-5.59425e-011	-5.77944e-011	-6.05537e-011	-6.41766e-011	-6.88173e-011	-7.44397e-011	
CoarseR70	-2.4849e-010	-2.05834e-010	-1.73982e-010	-1.47022e-010	-1.24485e-010	-1.05025e-010	-8.88364e-011	-7.4777e-011	-6.271e-011	-5.27359e-011	-4.42102e-011	-3.70369e-011	-3.1356e-011	-2.68523e-011	-2.35489e-011	-2.10769e-011	-1.96636e-011	-1.92963e-011	-1.96472e-011	-2.12038e-011	-2.33215e-011	-2.69673e-011	-3.13032e-011	-3.73938e-011	-4.55223e-011	-5.36857e-011	
CoarseR80	-2.09338e-010	-1.67612e-010	-1.36427e-010	-1.10474e-010	-8.81697e-011	-6.93989e-011	-5.34388e-011	-3.9793e-011	-2.84361e-011	-1.87221e-011	-1.0649e-011	-4.25217e-012	8.02888e-013	4.84076e-012	7.5284e-012	9.32461e-012	9.91878e-012	9.44894e-012	7.7579e-012	5.20423e-012	1.12821e-012	-4.22609e-012	-1.27629e-011	-2.10586e-011	-2.94619e-011	-3.77021e-011	
CoarseR90	-1.7597e-010	-1.3511e-010	-1.04441e-010	-7.90078e-011	-5.73657e-011	-3.9123e-011	-2.35549e-011	-1.04538e-011	6.44127e-013	9.95231e-012	1.7402e-011	2.3525e-011	2.7936e-011	3.14829e-011	3.35154e-011	3.44826e-011	3.42225e-011	3.25917e-011	2.97453e-011	2.53842e-011	1.82751e-011	9.46538e-012	5.55395e-013	-8.10722e-012	-1.61238e-011	-2.38808e-011	
CoarseR100	-1.47288e-010	-1.07122e-010	-7.70936e-011	-5.18229e-011	-3.0871e-011	-1.28163e-011	2.05037e-012	1.50949e-011	2.56082e-011	3.44757e-011	4.16567e-011	4.69636e-011	5.12397e-011	5.37995e-011	5.53085e-011	5.52586e-011	5.39796e-011	5.11685e-011	4.64885e-011	3.85475e-011	2.959e-011	2.02896e-011	1.15283e-011	3.40336e-012	-4.23985e-012	-1.17567e-011	
CoarseR110	-1.21829e-010	-8.24074e-011	-5.30081e-011	-2.78648e-011	-6.97298e-012	1.05826e-011	2.50722e-011	3.7533e-011	4.78005e-011	5.63893e-011	6.30828e-011	6.80793e-011	7.17124e-011	7.35795e-011	7.42182e-011	7.33034e-011	7.08409e-011	6.60028e-011	5.74275e-011	4.83381e-011	3.87852e-011	2.99073e-011	2.15303e-011	1.38214e-011	6.44495e-012	-2.78915e-013	
CoarseR120	-9.92291e-011	-6.04228e-011	-3.13583e-011	-6.86019e-012	1.35503e-011	3.10525e-011	4.54758e-011	5.75166e-011	6.73779e-011	7.54725e-011	8.17145e-011	8.62035e-011	8.93244e-011	9.06723e-011	9.04497e-011	8.83028e-011	8.39798e-011	7.55576e-011	6.5994e-011	5.64969e-011	4.73475e-011	3.89071e-011	3.07891e-011	2.35533e-011	1.66373e-011	1.00651e-011	
CoarseR130	-7.96014e-011	-4.12409e-011	-1.23191e-011	1.16972e-011	3.19552e-011	4.92353e-011	6.34225e-011	7.53896e-011	8.49354e-011	9.25989e-011	9.83478e-011	1.02488e-010	1.0473e-010	1.05389e-010	1.04103e-010	1.00577e-010	9.25511e-011	8.31914e-011	7.32392e-011	6.41808e-011	5.52971e-011	4.71607e-011	3.9545e-011	3.26129e-011	2.58702e-011	1.96565e-011	
CoarseR140	-6.15361e-011	-2.35761e-011	5.03954e-012	2.88659e-011	4.89449e-011	6.58777e-011	7.96568e-011	9.13103e-011	1.00606e-010	1.07941e-010	1.13331e-010	1.16997e-010	1.18719e-010	1.18271e-010	1.15959e-010	1.09265e-010	9.98767e-011	8.97652e-011	8.02854e-011	7.13284e-011	6.31536e-011	5.54914e-011	4.80422e-011	4.13145e-011	3.49409e-011	2.89345e-011	
CoarseR150	-4.55894e-011	-7.77915e-012	2.05688e-011	4.42628e-011	6.41205e-011	8.07839e-011	9.46947e-011	1.0592e-010	1.14892e-010	1.2208e-010	1.27164e-010	1.301e-010	1.31081e-010	1.29768e-010	1.25418e-010	1.15974e-010	1.05858e-010	9.62393e-011	8.70569e-011	7.84398e-011	7.04273e-011	6.29652e-011	5.58794e-011	4.9715e-011	4.35558e-011	3.75975e-011	
CoarseR160	-3.06995e-011	6.70187e-012	3.50768e-011	5.85618e-011	7.80658e-011	9.45093e-011	1.07955e-010	1.19286e-010	1.28118e-010	1.34967e-010	1.39524e-010	1.41932e-010	1.42194e-010	1.39784e-010	1.32005e-010	1.21996e-010	1.11894e-010	1.0262e-010	9.35833e-011	8.55321e-011	7.76762e-011	7.0428e-011	6.37401e-011	5.74433e-011	5.15165e-011	4.61554e-011	
CoarseR170	-1.74727e-011	2.0015e-011	4.79236e-011	7.12478e-011	9.08484e-011	1.07259e-010	1.20602e-010	1.31642e-010	1.40319e-010	1.46686e-010	1.50694e-010	1.52736e-010	1.52093e-010	1.47379e-010	1.3826e-010	1.27449e-010	1.17737e-010	1.08633e-010	1.00162e-010	9.22966e-011	8.46598e-011	7.80168e-011	7.13758e-011	6.51264e-011	5.9468e-011	5.39888e-011	
CoarseR180	-5.20178e-012	3.20166e-011	5.99064e-011	8.3041e-011	1.02623e-010	1.18786e-010	1.32219e-010	1.42905e-010	1.51486e-010	1.57303e-010	1.61143e-010	1.62459e-010	1.60914e-010	1.53375e-010	1.43358e-010	1.33282e-010	1.23725e-010	1.14642e-010	1.06372e-010	9.85527e-011	9.1709e-011	8.47446e-011	7.83516e-011	7.25545e-011	6.67812e-011	6.1775e-011	
CoarseR190	6.07895e-012	4.29383e-011	7.08939e-011	9.41822e-011	1.1351e-010	1.29777e-010	1.42932e-010	1.53515e-010	1.61761e-010	1.67606e-010	1.70895e-010	1.71473e-010	1.68561e-010	1.59174e-010	1.48577e-010	1.38705e-010	1.29534e-010	1.2103e-010	1.12824e-010	1.05232e-010	9.82757e-011	9.15564e-011	8.54018e-011	7.95216e-011	7.4209e-011	6.91269e-011	
CoarseR200	1.64124e-011	5.32161e-011	8.11424e-011	1.04228e-010	1.23522e-010	1.39707e-010	1.52945e-010	1.63378e-010	1.71262e-010	1.76754e-010	1.7969e-010	1.79552e-010	1.74065e-010	1.6396e-010	1.53925e-010	1.44072e-010	1.35117e-010	1.26856e-010	1.18864e-010	1.11568e-010	1.04676e-010	9.83725e-011	9.23669e-011	8.65732e-011	8.11613e-011	7.63919e-011	
CoarseR210	2.57838e-011	6.26171e-011	9.04382e-011	1.1348e-010	1.33094e-010	1.48995e-010	1.61921e-010	1.72446e-010	1.80366e-010	1.85502e-010	1.87888e-010	1.86974e-010	1.79491e-010	1.68979e-010	1.58978e-010	1.49562e-010	1.40842e-010	1.32639e-010	1.24902e-010	1.1783e-010	1.11021e-010	1.04654e-010	9.8721e-011	9.32375e-011	8.81402e-011	8.30725e-011	
CoarseR220	3.4388e-011	7.12547e-011	9.90746e-011	1.22287e-010	1.41482e-010	1.57626e-010	1.70655e-010	1.80866e-010	1.88626e-010	1.93609e-010	1.95628e-010	1.93719e-010	1.84515e-010	1.73728e-010	1.64157e-010	1.54927e-010	1.46298e-010	1.38324e-010	1.30872e-010	1.23885e-010	1.1738e-010	1.11129e-010	1.05289e-010	9.99064e-011	9.47562e-011	8.98422e-011	
CoarseR230	4.24746e-011	7.92519e-011	1.07122e-010	1.30446e-010	1.49791e-010	1.6567e-010	1.7876e-010	1.89005e-010	1.96423e-010	2.0125e-010	2.02526e-010	1.99087e-010	1.8908e-010	1.78913e-010	1.69196e-010	1.60232e-010	1.5187e-010	1.44006e-010	1.36436e-010	1.2972e-010	1.23526e-010	1.17179e-010	1.11646e-010	1.06192e-010	1.01171e-010	9.65452e-011	
CoarseR240	4.98125e-011	8.66397e-011	1.14608e-010	1.37958e-010	1.57216e-010	1.73226e-010	1.86182e-010	1.96475e-010	2.03921e-010	2.08194e-010	2.09358e-010	2.0389e-010	1.93719e-010	1.83809e-010	1.7436e-010	1.65256e-010	1.57338e-010	1.49738e-010	1.42298e-010	1.35704e-010	1.29225e-010	1.23359e-010	1.17773e-010	1.12641e-010	1.0775e-010	1.02912e-010	
CoarseR250	5.65616e-011	9.34454e-011	1.21432e-010	1.44757e-010	1.6414e-010	1.8041e-010	1.9328e-010	2.03419e-010	2.10772e-010	2.14835e-010	2.15484e-010	2.08788e-010	1.98383e-010	1.88335e-010	1.79306e-010	1.70507e-010	1.62509e-010	1.55027e-010	1.47864e-010	1.41365e-010	1.34986e-010	1.2926e-010	1.23648e-010	1.18612e-010	1.13477e-010	1.08969e-010	
MinCout:	-2.78915e-013	CoarseR:	110	CoarseC:	250

	CoarseC40	CoarseC41	CoarseC42	CoarseC43	CoarseC44	CoarseC45	CoarseC46	CoarseC47	CoarseC48	CoarseC49	CoarseC50	CoarseC51	CoarseC52	CoarseC53	CoarseC54	CoarseC55	CoarseC56	CoarseC57	CoarseC58	CoarseC59	CoarseC60	
CoarseR100	-3.07029e-011	-2.87372e-011	-2.71247e-011	-2.50356e-011	-2.30887e-011	-2.14214e-011	-1.98221e-011	-1.80339e-011	-1.62418e-011	-1.47576e-011	-1.29826e-011	-1.13498e-011	-9.71477e-012	-8.09885e-012	-6.45939e-012	-5.15035e-012	-3.52749e-012	-2.19347e-012	-5.66145e-013	7.51271e-013	2.05037e-012	
CoarseR101	-2.83707e-011	-2.62906e-011	-2.44644e-011	-2.25178e-011	-2.0759e-011	-1.89277e-011	-1.73068e-011	-1.5518e-011	-1.37501e-011	-1.21003e-011	-1.03258e-011	-8.69345e-012	-7.22573e-012	-5.44355e-012	-3.96903e-012	-2.66347e-012	-8.52689e-013	2.92125e-013	1.75426e-012	3.23547e-012	4.72271e-012	
CoarseR102	-2.56947e-011	-2.37533e-011	-2.19773e-011	-2.00311e-011	-1.80848e-011	-1.64663e-011	-1.48211e-011	-1.30334e-011	-1.12647e-011	-9.78141e-012	-7.98443e-012	-6.37573e-012	-4.71994e-012	-3.10543e-012	-1.46702e-012	-1.59202e-013	1.46233e-012	2.79558e-012	4.25339e-012	5.56928e-012	7.05584e-012	
CoarseR103	-2.3382e-011	-2.14409e-011	-1.96153e-011	-1.75303e-011	-1.59128e-011	-1.41067e-011	-1.24869e-011	-1.06749e-011	-8.90905e-012	-7.25895e-012	-5.4859e-012	-3.85467e-012	-2.38875e-012	-7.74922e-013	8.62988e-013	2.1702e-012	3.7911e-012	5.14483e-012	6.74931e-012	7.89606e-012	9.38217e-012	
CoarseR104	-2.10286e-011	-1.88997e-011	-1.72895e-011	-1.53444e-011	-1.33969e-011	-1.17567e-011	-9.94878e-012	-8.35023e-012	-6.56022e-012	-5.07793e-012	-3.16227e-012	-1.53144e-012	-2.31063e-013	1.57129e-012	3.20875e-012	4.51323e-012	6.1333e-012	7.30003e-012	8.9247e-012	1.02186e-011	1.17003e-011	
CoarseR105	-1.84969e-011	-1.65828e-011	-1.47589e-011	-1.28393e-011	-1.10575e-011	-9.41761e-012	-7.7748e-012	-5.822e-012	-4.19879e-012	-2.71716e-012	-8.02201e-013	8.50249e-013	2.29442e-012	3.90706e-012	5.54414e-012	7.03738e-012	8.47011e-012	9.63396e-012	1.12581e-011	1.25727e-011	1.40539e-011	
CoarseR106	-1.61438e-011	-1.41801e-011	-1.25712e-011	-1.0627e-011	-8.70502e-012	-7.04104e-012	-5.25653e-012	-3.63607e-012	-2.01334e-012	-3.65477e-013	1.57207e-012	3.03475e-012	4.66651e-012	6.27884e-012	7.89327e-012	9.22002e-012	1.08608e-011	1.20022e-011	1.36471e-011	1.49608e-011	1.62553e-011	
CoarseR107	-1.39161e-011	-1.19774e-011	-1.01773e-011	-8.09345e-012	-6.31357e-012	-4.65041e-012	-3.05683e-012	-1.10383e-012	5.18461e-013	1.99936e-012	3.7699e-012	5.39903e-012	6.86379e-012	8.49649e-012	1.01109e-011	1.14368e-011	1.30342e-011	1.42174e-011	1.58198e-011	1.71314e-011	1.85917e-011	
CoarseR108	-1.15596e-011	-9.59666e-012	-7.82189e-012	-5.87878e-012	-4.12455e-012	-2.29467e-012	-6.77658e-013	1.10866e-012	2.73029e-012	4.3774e-012	5.95744e-012	7.60897e-012	9.07233e-012	1.08728e-011	1.22967e-011	1.36219e-011	1.52394e-011	1.65699e-011	1.80453e-011	1.93361e-011	2.06291e-011	
CoarseR109	-9.3296e-012	-7.39257e-012	-5.76065e-012	-3.67726e-012	-1.89778e-012	-2.59544e-013	1.52426e-012	3.14306e-012	4.90738e-012	6.38764e-012	8.17964e-012	9.78563e-012	1.12715e-011	1.30716e-011	1.45159e-011	1.58194e-011	1.74363e-011	1.87665e-011	2.02193e-011	2.1551e-011	2.2865e-011	
CoarseR110	-7.11259e-012	-5.17553e-012	-3.21145e-012	-1.26947e-012	3.41694e-013	2.12291e-012	3.76214e-012	5.7142e-012	7.33468e-012	8.81406e-012	1.05593e-011	1.20427e-011	1.36722e-011	1.5304e-011	1.67264e-011	1.80726e-011	1.96885e-011	2.08493e-011	2.24696e-011	2.37808e-011	2.52396e-011	
CoarseR111	-4.88565e-012	-2.94903e-012	-1.15052e-012	7.9078e-013	2.73515e-012	4.18017e-012	5.98674e-012	7.60418e-012	9.39189e-012	1.10377e-011	1.26149e-011	1.42652e-011	1.57053e-011	1.73368e-011	1.89706e-011	2.01046e-011	2.172e-011	2.32368e-011	2.46694e-011	2.58305e-011	2.72888e-011	
CoarseR112	-2.64346e-012	-6.82695e-013	9.47035e-013	2.88745e-012	4.80663e-012	6.44336e-012	8.22613e-012	9.84299e-012	1.14382e-011	1.30838e-011	1.48522e-011	1.64786e-011	1.77948e-011	1.94023e-011	2.10354e-011	2.23597e-011	2.39513e-011	2.528e-011	2.65849e-011	2.80404e-011	2.93493e-011	
CoarseR113	-7.52175e-013	1.34853e-012	3.14684e-012	5.08712e-012	6.86499e-012	8.47663e-012	1.01136e-011	1.20651e-011	1.36838e-011	1.51617e-011	1.69283e-011	1.8555e-011	2.00144e-011	2.16239e-011	2.30885e-011	2.45781e-011	2.61721e-011	2.73512e-011	2.8782e-011	3.00908e-011	3.13989e-011	
CoarseR114	1.48371e-012	3.41936e-012	5.21637e-012	7.15591e-012	8.93053e-012	1.05689e-011	1.21821e-011	1.41333e-011	1.57271e-011	1.72265e-011	1.89923e-011	2.05962e-011	2.20797e-011	2.36858e-011	2.51497e-011	2.647e-011	2.80633e-011	2.93909e-011	3.08403e-011	3.19799e-011	3.36479e-011	
CoarseR115	3.39706e-012	5.3312e-012	7.12897e-012	9.234e-012	1.10113e-011	1.26697e-011	1.44513e-011	1.60415e-011	1.7828e-011	1.91357e-011	2.10699e-011	2.26944e-011	2.41325e-011	2.57823e-011	2.73935e-011	2.85446e-011	3.01571e-011	3.13152e-011	3.29132e-011	3.4071e-011	3.5697e-011	
CoarseR116	5.63049e-012	7.42457e-012	9.22213e-012	1.13267e-011	1.31036e-011	1.47363e-011	1.63482e-011	1.81543e-011	1.97488e-011	2.12251e-011	2.31559e-011	2.4615e-011	2.62652e-011	2.76799e-011	2.91425e-011	3.06307e-011	3.22229e-011	3.34e-011	3.50164e-011	3.61544e-011	3.76109e-011	
CoarseR117	7.73446e-012	9.49766e-012	1.12952e-011	1.32333e-011	1.50329e-011	1.66671e-011	1.8448e-011	2.00616e-011	2.18473e-011	2.31285e-011	2.5062e-011	2.66853e-011	2.81672e-011	2.97708e-011	3.12125e-011	3.25306e-011	3.41417e-011	3.52987e-011	3.69379e-011	3.80518e-011	3.96772e-011	
CoarseR118	9.67938e-012	1.16379e-011	1.34088e-011	1.5346e-011	1.7122e-011	1.8753e-011	2.05589e-011	2.21464e-011	2.37618e-011	2.52369e-011	2.71698e-011	2.86243e-011	3.02491e-011	3.17078e-011	3.33372e-011	3.46345e-011	3.62685e-011	3.7401e-011	3.9016e-011	4.01525e-011	4.14374e-011	
CoarseR119	1.16084e-011	1.35401e-011	1.53369e-011	1.72736e-011	1.90721e-011	2.0705e-011	2.24818e-011	2.42421e-011	2.58568e-011	2.73313e-011	2.90935e-011	3.05474e-011	3.21962e-011	3.36296e-011	3.52584e-011	3.6555e-011	3.81885e-011	3.94905e-011	4.09396e-011	4.20703e-011	4.35481e-011	
CoarseR120	1.35478e-011	1.56496e-011	1.72754e-011	1.92114e-011	2.09834e-011	2.2616e-011	2.43958e-011	2.60073e-011	2.7792e-011	2.90954e-011	3.10274e-011	3.26761e-011	3.4129e-011	3.55862e-011	3.71898e-011	3.86562e-011	4.02892e-011	4.14443e-011	4.27174e-011	4.41926e-011	4.54938e-011	
MinCout:	-1.59202e-013	CoarseR:	102	CoarseC:	55

	FineC0	FineC10	FineC20	FineC30	FineC40	FineC50	FineC60	FineC70	FineC80	FineC90	FineC100	FineC110	FineC120	FineC130	FineC140	FineC150	FineC160	FineC170	FineC180	FineC190	FineC200	FineC210	FineC220	FineC230	FineC240	FineC250	
FineR0	-1.38487e-010	-1.10398e-010	-9.36422e-011	-8.12791e-011	-7.20125e-011	-6.4553e-011	-5.87671e-011	-5.36857e-011	-4.96776e-011	-4.6248e-011	-4.32545e-011	-4.08872e-011	-3.86417e-011	-3.65552e-011	-3.49175e-011	-3.3256e-011	-3.20866e-011	-3.07323e-011	-2.96897e-011	-2.86414e-011	-2.77393e-011	-2.68168e-011	-2.59159e-011	-2.53218e-011	-2.4754e-011	-2.41395e-011	
FineR10	-1.21614e-010	-9.40225e-011	-7.72126e-011	-6.50202e-011	-5.56311e-011	-4.83315e-011	-4.25282e-011	-3.77728e-011	-3.37488e-011	-3.01812e-011	-2.73566e-011	-2.48081e-011	-2.27302e-011	-2.06461e-011	-1.89876e-011	-1.75155e-011	-1.59983e-011	-1.48327e-011	-1.36237e-011	-1.27451e-011	-1.16568e-011	-1.09229e-011	-1.01865e-011	-9.45196e-012	-8.69487e-012	-8.25022e-012	
FineR20	-1.14196e-010	-8.66079e-011	-6.98463e-011	-5.77624e-011	-4.81866e-011	-4.09249e-011	-3.51269e-011	-3.03768e-011	-2.63789e-011	-2.2931e-011	-2.01103e-011	-1.75659e-011	-1.53468e-011	-1.35964e-011	-1.17973e-011	-1.01402e-011	-8.97776e-012	-7.60466e-012	-6.56226e-012	-5.51805e-012	-4.64065e-012	-3.88718e-012	-2.98559e-012	-2.2303e-012	-1.64038e-012	-1.0313e-012	
FineR30	-1.10104e-010	-8.24583e-011	-6.58663e-011	-5.36267e-011	-4.42785e-011	-3.68011e-011	-3.11971e-011	-2.62853e-011	-2.22667e-011	-1.88213e-011	-1.58603e-011	-1.34604e-011	-1.1243e-011	-9.3288e-012	-7.69751e-012	-6.20628e-012	-4.69111e-012	-3.52979e-012	-2.48841e-012	-1.42387e-012	-5.256e-013	3.52554e-013	1.10644e-012	1.88216e-012	2.45058e-012	3.05932e-012	
FineR40	-1.07481e-010	-7.98441e-011	-6.30643e-011	-5.08294e-011	-4.1616e-011	-3.41688e-011	-2.85442e-011	-2.3636e-011	-1.94816e-011	-1.62026e-011	-1.3409e-011	-1.08446e-011	-8.62845e-012	-6.69214e-012	-4.89613e-012	-3.40684e-012	-2.08036e-012	-8.75721e-013	1.21057e-013	1.18513e-012	2.08287e-012	2.98187e-012	3.71412e-012	4.46846e-012	5.0576e-012	5.64502e-012	
FineR50	-1.05417e-010	-7.79439e-011	-6.11695e-011	-4.89335e-011	-3.97284e-011	-3.24459e-011	-2.64955e-011	-2.15888e-011	-1.75741e-011	-1.43225e-011	-1.15306e-011	-8.99009e-012	-6.72846e-012	-4.81677e-012	-3.18762e-012	-1.72131e-012	-2.07202e-013	1.14246e-012	2.16074e-012	3.05675e-012	3.95403e-012	4.85258e-012	5.60562e-012	6.17207e-012	6.94823e-012	7.51452e-012	
FineR60	-1.04074e-010	-7.66079e-011	-5.98659e-011	-4.7797e-011	-3.82365e-011	-3.11503e-011	-2.517e-011	-2.04312e-011	-1.62536e-011	-1.30266e-011	-1.00458e-011	-7.67211e-012	-5.60009e-012	-3.52263e-012	-1.70468e-012	-2.16627e-013	9.41101e-013	2.31219e-012	3.32974e-012	4.37107e-012	5.43453e-012	5.99805e-012	6.89796e-012	7.65172e-012	8.2385e-012	8.84857e-012	
FineR70	-1.03114e-010	-7.5487e-011	-5.87133e-011	-4.66807e-011	-3.72831e-011	-3.0008e-011	-2.42232e-011	-1.93193e-011	-1.53069e-011	-1.1916e-011	-9.07739e-012	-6.70429e-012	-4.49085e-012	-2.5574e-012	-9.06535e-013	7.0235e-013	2.21586e-012	3.39831e-012	4.45929e-012	5.47747e-012	6.3741e-012	7.12713e-012	7.87961e-012	8.61208e-012	9.36635e-012	9.78695e-012	
FineR80	-1.02339e-010	-7.47561e-011	-5.81124e-011	-4.58845e-011	-3.6329e-011	-2.92469e-011	-2.34358e-011	-1.85339e-011	-1.45471e-011	-1.11335e-011	-8.15427e-012	-5.78215e-012	-3.54515e-012	-1.61241e-012	1.59091e-013	1.6466e-012	2.99253e-012	4.1744e-012	5.37984e-012	6.25265e-012	7.14889e-012	8.02531e-012	8.77774e-012	9.3642e-012	1.01192e-011	1.07271e-011	
FineR90	-1.01588e-010	-7.39791e-011	-5.73742e-011	-4.51472e-011	-3.59196e-011	-2.84822e-011	-2.27001e-011	-1.77986e-011	-1.3788e-011	-1.05399e-011	-7.41979e-012	-5.04736e-012	-2.81107e-012	-8.78432e-013	7.48846e-013	2.21323e-012	3.55887e-012	4.74038e-012	5.94561e-012	6.98598e-012	7.88214e-012	8.63335e-012	9.5109e-012	1.00973e-011	1.07044e-011	1.14602e-011	
FineR100	-1.01012e-010	-7.34346e-011	-5.67951e-011	-4.45703e-011	-3.5371e-011	-2.79085e-011	-2.21275e-011	-1.7227e-011	-1.32414e-011	-9.99368e-012	-6.99125e-012	-4.45433e-012	-2.2424e-012	-3.3311e-013	1.31669e-012	2.80324e-012	4.14836e-012	5.32933e-012	6.51184e-012	7.55263e-012	8.4486e-012	9.17766e-012	1.0077e-011	1.08301e-011	1.12703e-011	1.20247e-011	
FineR110	-1.00623e-010	-7.30102e-011	-5.62386e-011	-4.40215e-011	-3.47918e-011	-2.75518e-011	-2.17457e-011	-1.66794e-011	-1.28606e-011	-9.25691e-012	-6.4457e-012	-4.09843e-012	-1.83949e-012	6.9148e-014	1.86232e-012	3.34873e-012	4.67174e-012	5.87456e-012	6.89015e-012	7.95224e-012	8.8479e-012	9.7238e-012	1.04758e-011	1.12079e-011	1.17947e-011	1.24023e-011	
FineR120	-1.00069e-010	-7.24588e-011	-5.58884e-011	-4.36325e-011	-3.44393e-011	-2.71404e-011	-2.11981e-011	-1.64623e-011	-1.23136e-011	-9.04157e-012	-6.08838e-012	-3.52815e-012	-1.48288e-012	6.15245e-013	2.24168e-012	3.72796e-012	5.05025e-012	6.42033e-012	7.43581e-012	8.32998e-012	9.20326e-012	1.01011e-011	1.10213e-011	1.15849e-011	1.21715e-011	1.29273e-011	
FineR130	-9.97565e-011	-7.22599e-011	-5.56625e-011	-4.32489e-011	-3.3917e-011	-2.67841e-011	-2.09775e-011	-1.59396e-011	-1.19327e-011	-8.49452e-012	-5.70803e-012	-3.17152e-012	-1.10284e-012	8.28476e-013	2.45447e-012	4.08431e-012	5.4296e-012	6.60957e-012	7.64723e-012	8.68673e-012	9.58219e-012	1.048e-011	1.12318e-011	1.19637e-011	1.27173e-011	1.31577e-011	
FineR140	-9.96774e-011	-7.20696e-011	-5.53064e-011	-4.28925e-011	-3.37266e-011	-2.6399e-011	-2.06209e-011	-1.5558e-011	-1.17149e-011	-8.13773e-012	-5.49292e-012	-2.8147e-012	-7.46062e-013	1.18533e-012	2.81135e-012	4.29727e-012	5.61919e-012	6.9665e-012	8.00417e-012	9.066e-012	9.93915e-012	1.0858e-011	1.15888e-011	1.23414e-011	1.27592e-011	1.35148e-011	
FineR150	-9.93216e-011	-7.17135e-011	-5.50815e-011	-4.28623e-011	-3.35015e-011	-2.60682e-011	-2.02642e-011	-1.5366e-011	-1.1358e-011	-7.94649e-012	-4.96997e-012	-2.59978e-012	-3.89021e-013	1.51919e-012	3.16805e-012	4.65385e-012	6.14297e-012	7.17857e-012	8.38288e-012	9.42217e-012	1.02963e-011	1.1047e-011	1.19448e-011	1.26987e-011	1.31164e-011	1.3872e-011	
FineR160	-9.89672e-011	-7.15158e-011	-5.47197e-011	-4.26673e-011	-3.31193e-011	-2.58775e-011	-2.00461e-011	-1.51489e-011	-1.11663e-011	-7.73101e-012	-4.94491e-012	-2.43287e-012	-1.75138e-013	1.73265e-012	3.35849e-012	4.84373e-012	6.18809e-012	7.53502e-012	8.57235e-012	9.59014e-012	1.04855e-011	1.12361e-011	1.21351e-011	1.28877e-011	1.34724e-011	1.40608e-011	
FineR170	-9.87669e-011	-7.1161e-011	-5.45234e-011	-4.24723e-011	-3.2952e-011	-2.56557e-011	-1.98788e-011	-1.48153e-011	-1.09745e-011	-7.56448e-012	-4.58788e-012	-2.21823e-012	-7.99065e-015	1.923e-012	3.54823e-012	5.03369e-012	6.35514e-012	7.72469e-012	8.76189e-012	9.77956e-012	1.08641e-011	1.15936e-011	1.23451e-011	1.30974e-011	1.36614e-011	1.42497e-011	
FineR180	-9.85997e-011	-7.09632e-011	-5.45219e-011	-4.21446e-011	-3.27578e-011	-2.54883e-011	-1.9686e-011	-1.47894e-011	-1.07827e-011	-7.37231e-012	-4.39672e-012	-1.88512e-012	1.8264e-013	2.11314e-012	3.73843e-012	5.22373e-012	6.54501e-012	7.91444e-012	8.92993e-012	9.9904e-012	1.08642e-011	1.17606e-011	1.25121e-011	1.32865e-011	1.40191e-011	1.44592e-011	
FineR190	-9.85647e-011	-7.07958e-011	-5.41667e-011	-4.19176e-011	-3.25636e-011	-2.52948e-011	-1.93298e-011	-1.4622e-011	-1.06153e-011	-7.205e-012	-4.22943e-012	-1.86083e-012	3.73241e-013	2.30362e-012	3.90561e-012	5.558e-012	6.90229e-012	8.24915e-012	9.11864e-012	1.01575e-011	1.10525e-011	1.195e-011	1.27014e-011	1.34536e-011	1.42067e-011	1.46262e-011	
FineR200	-9.83975e-011	-7.07565e-011	-5.39992e-011	-4.19161e-011	-3.25622e-011	-2.51311e-011	-1.93013e-011	-1.42656e-011	-1.04243e-011	-7.0134e-012	-4.20474e-012	-1.66983e-012	7.30249e-013	2.47069e-012	4.26281e-012	5.77047e-012	7.06949e-012	8.24941e-012	9.4751e-012	1.03471e-011	1.1242e-011	1.21171e-011	1.28685e-011	1.34537e-011	1.42287e-011	1.47934e-011	
FineR210	-9.81653e-011	-7.04015e-011	-5.39633e-011	-4.15882e-011	-3.23647e-011	-2.49351e-011	-1.91593e-011	-1.42382e-011	-1.02568e-011	-6.82259e-012	-4.01307e-012	-1.50241e-012	7.30858e-013	2.66093e-012	4.28588e-012	5.7479e-012	7.09187e-012	8.4384e-012	9.47534e-012	1.05153e-011	1.15773e-011	1.21382e-011	1.30578e-011	1.36208e-011	1.43959e-011	1.49825e-011	
FineR220	-9.7998e-011	-7.04304e-011	-5.36369e-011	-4.15548e-011	-3.22017e-011	-2.49052e-011	-1.91326e-011	-1.40443e-011	-1.00913e-011	-6.65517e-012	-3.84677e-012	-1.33581e-012	7.54839e-013	2.66147e-012	4.45318e-012	6.10529e-012	7.42648e-012	8.43869e-012	9.64257e-012	1.07038e-011	1.15986e-011	1.24947e-011	1.3225e-011	1.38101e-011	1.44165e-011	1.51497e-011	
FineR230	-9.78325e-011	-7.03604e-011	-5.3601e-011	-4.15532e-011	-3.21703e-011	-2.47414e-011	-1.88e-011	-1.40682e-011	-9.89827e-012	-6.62938e-012	-3.82166e-012	-1.3113e-012	1.08847e-012	3.01835e-012	4.64316e-012	6.12803e-012	7.44889e-012	8.79531e-012	9.83216e-012	1.07254e-011	1.15976e-011	1.24948e-011	1.3246e-011	1.39773e-011	1.45852e-011	1.51701e-011	
FineR240	-9.77877e-011	-7.01947e-011	-5.34404e-011	-4.11935e-011	-3.18381e-011	-2.45715e-011	-1.87714e-011	-1.38768e-011	-9.87169e-012	-6.43852e-012	-3.51271e-012	-1.12087e-012	1.08894e-012	3.01894e-012	4.64312e-012	6.12779e-012	7.44844e-012	8.81744e-012	9.85402e-012	1.0915e-011	1.17659e-011	1.2516e-011	1.34353e-011	1.41444e-011	1.45837e-011	1.53594e-011	
FineR250	-9.76652e-011	-7.01929e-011	-5.34334e-011	-4.12197e-011	-3.18066e-011	-2.45439e-011	-1.85795e-011	-1.38493e-011	-9.68054e-012	-6.46191e-012	-3.48759e-012	-9.77219e-013	1.11297e-012	3.01915e-012	4.64365e-012	6.31768e-012	7.6162e-012	8.98537e-012	9.85434e-012	1.10597e-011	1.19543e-011	1.26831e-011	1.34132e-011	1.41652e-011	1.49196e-011	1.53594e-011	
MinCout:	-7.99065e-015	FineR:	170	FineC:	120

	FineC120	FineC121	FineC122	FineC123	FineC124	FineC125	FineC126	FineC127	FineC128	FineC129	FineC130	FineC131	FineC132	FineC133	FineC134	FineC135	FineC136	FineC137	FineC138	FineC139	FineC140	
FineR90	-2.81138e-012	-2.66827e-012	-2.35864e-012	-2.21519e-012	-2.09524e-012	-1.92887e-012	-1.64203e-012	-1.47543e-012	-1.33198e-012	-1.18849e-012	-8.78432e-013	-7.34833e-013	-5.91185e-013	-4.47487e-013	-1.14342e-013	2.94403e-014	1.73272e-013	1.50442e-013	6.27634e-013	6.04842e-013	7.48846e-013	
FineR91	-2.97759e-012	-2.47867e-012	-2.35864e-012	-2.19211e-012	-1.90568e-012	-1.76236e-012	-1.619e-012	-1.47559e-012	-1.16562e-012	-1.0221e-012	-8.78539e-013	-7.34926e-013	-4.24726e-013	-2.81009e-013	-1.37243e-013	6.43263e-015	1.73126e-013	2.94162e-013	4.60916e-013	6.04885e-013	9.38175e-013	
FineR92	-2.78796e-012	-2.6449e-012	-2.16905e-012	-2.02585e-012	-1.88261e-012	-1.73932e-012	-1.42947e-012	-1.28607e-012	-1.16562e-012	-1.0221e-012	-6.89061e-013	-7.12012e-013	-5.68393e-013	-2.58187e-013	-1.14465e-013	2.93064e-014	1.73127e-013	3.16997e-013	6.27482e-013	7.71456e-013	9.38256e-013	
FineR93	-2.78826e-012	-2.47869e-012	-2.33557e-012	-2.19215e-012	-1.88245e-012	-1.76244e-012	-1.59586e-012	-1.4525e-012	-9.76111e-013	-9.991e-013	-6.89061e-013	-5.45484e-013	-4.0186e-013	-2.58187e-013	-1.14465e-013	1.95856e-013	3.62536e-013	5.06392e-013	6.27482e-013	6.27482e-013	9.38026e-013	
FineR94	-2.62177e-012	-2.45529e-012	-2.16907e-012	-2.02588e-012	-1.85936e-012	-1.71612e-012	-1.40632e-012	-1.28599e-012	-1.16571e-012	-8.09595e-013	-6.66089e-013	-5.22533e-013	-4.0186e-013	-6.87368e-014	7.49717e-014	2.18729e-013	3.62536e-013	5.06392e-013	8.16863e-013	7.94047e-013	9.60823e-013	
FineR95	-2.62177e-012	-2.28905e-012	-2.16907e-012	-2.02588e-012	-1.71614e-012	-1.57286e-012	-1.42952e-012	-1.26296e-012	-9.76169e-013	-8.09595e-013	-6.66089e-013	-3.79006e-013	-2.12396e-013	-9.16706e-014	7.49717e-014	3.85278e-013	3.62405e-013	5.29091e-013	6.72952e-013	9.83428e-013	1.12739e-012	
FineR96	-2.59832e-012	-2.28905e-012	-1.97944e-012	-1.83627e-012	-1.69305e-012	-1.54979e-012	-1.23995e-012	-1.09658e-012	-9.76169e-013	-8.09685e-013	-4.99624e-013	-3.5605e-013	-2.12426e-013	-6.88107e-014	7.4887e-014	2.18634e-013	3.6243e-013	5.06276e-013	8.16749e-013	9.8352e-013	1.1275e-012	
FineR97	-2.43209e-012	-2.28904e-012	-1.97944e-012	-1.83627e-012	-1.52654e-012	-1.54963e-012	-1.40634e-012	-1.263e-012	-7.86625e-013	-6.43149e-013	-4.99624e-013	-1.89503e-013	-2.12459e-013	-6.88269e-014	9.78046e-014	2.41532e-013	5.51878e-013	6.95709e-013	8.3959e-013	9.8352e-013	1.29409e-012	
FineR98	-2.43209e-012	-2.28904e-012	-2.14593e-012	-1.83626e-012	-1.69306e-012	-1.52654e-012	-1.23996e-012	-1.0966e-012	-8.0973e-013	-6.20095e-013	-4.76613e-013	-3.79083e-013	-1.89503e-013	1.20678e-013	2.64362e-013	4.08095e-013	5.51878e-013	8.62283e-013	1.00617e-012	9.83328e-013	1.12728e-012	
FineR99	-2.4089e-012	-2.09936e-012	-1.97942e-012	-1.83626e-012	-1.50342e-012	-1.38327e-012	-1.23996e-012	-1.0966e-012	-7.86645e-013	-6.4318e-013	-4.99666e-013	-1.89541e-013	-4.59231e-014	9.77446e-014	2.41461e-013	4.08131e-013	7.18446e-013	8.85143e-013	8.39501e-013	1.15002e-012	1.29399e-012	
FineR100	-2.24263e-012	-2.09936e-012	-1.95627e-012	-1.64661e-012	-1.50342e-012	-1.36018e-012	-1.05035e-012	-9.07003e-013	-7.63606e-013	-6.20161e-013	-3.1011e-013	-1.66561e-013	-2.29615e-014	1.20687e-013	4.30961e-013	5.74714e-013	5.5181e-013	8.62218e-013	1.00609e-012	1.17286e-012	1.31682e-012	
FineR101	-2.40885e-012	-1.93305e-012	-1.78994e-012	-1.64678e-012	-1.3369e-012	-1.17055e-012	-1.07354e-012	-9.07003e-013	-5.97062e-013	-4.53611e-013	-3.1011e-013	-1.89566e-013	1.43604e-013	2.87258e-013	2.64338e-013	5.97538e-013	9.07987e-013	8.62301e-013	1.02896e-012	1.17286e-012	1.48342e-012	
FineR102	-2.21912e-012	-2.0993e-012	-1.62341e-012	-1.48024e-012	-1.33703e-012	-1.3369e-012	-1.05046e-012	-9.06987e-013	-6.20167e-013	-4.53658e-013	-1.43569e-013	2.29808e-014	-2.29862e-014	1.20651e-013	4.30929e-013	5.7467e-013	7.18461e-013	1.02891e-012	1.21842e-012	1.3396e-012	1.48357e-012	
FineR103	-2.0526e-012	-1.90959e-012	-1.76652e-012	-1.62341e-012	-1.14737e-012	-1.19373e-012	-1.02722e-012	-8.83905e-013	-4.30559e-013	-4.30559e-013	-1.43569e-013	-1.43569e-013	1.6658e-013	3.10204e-013	4.53877e-013	5.97599e-013	9.07972e-013	1.0518e-012	1.21854e-012	1.3396e-012	1.50622e-012	
FineR104	-2.0528e-012	-1.90978e-012	-1.7667e-012	-1.48018e-012	-1.31371e-012	-1.14737e-012	-1.05043e-012	-7.17352e-013	-4.07515e-013	-4.30559e-013	-2.87089e-013	0	1.6658e-013	2.87264e-013	6.20533e-013	7.87123e-013	9.30881e-013	1.07469e-012	1.21854e-012	1.50637e-012	1.50622e-012	
FineR105	-2.0528e-012	-1.88657e-012	-1.60015e-012	-1.45702e-012	-1.31384e-012	-1.1706e-012	-8.60757e-013	-7.17421e-013	-5.97104e-013	-2.63996e-013	-1.2052e-013	0	1.66599e-013	4.76841e-013	6.20533e-013	7.64275e-013	9.08066e-013	1.21853e-012	1.3853e-012	1.36243e-012	1.50637e-012	
FineR106	-1.86305e-012	-1.72003e-012	-1.60015e-012	-1.43385e-012	-1.12414e-012	-1.00414e-012	-8.60757e-013	-7.17421e-013	-4.07458e-013	-2.64018e-013	-1.20528e-013	2.30108e-014	3.5619e-013	4.76841e-013	6.20533e-013	9.53824e-013	1.0976e-012	1.07469e-012	1.21853e-012	1.36243e-012	1.67301e-012	
FineR107	-2.02945e-012	-1.7202e-012	-1.43375e-012	-1.29059e-012	-1.14739e-012	-9.80917e-013	-8.6084e-013	-5.27761e-013	-4.07494e-013	-2.40968e-013	6.90902e-014	2.12615e-013	3.5619e-013	6.66418e-013	6.43446e-013	7.87143e-013	9.3089e-013	1.07469e-012	1.38516e-012	1.52922e-012	1.69586e-012	
FineR108	-1.86291e-012	-1.7199e-012	-1.60006e-012	-1.26742e-012	-9.57666e-013	-1.00397e-012	-6.94254e-013	-5.27805e-013	-2.40897e-013	-9.74378e-014	4.6071e-014	1.89629e-013	3.56198e-013	6.66418e-013	6.2054e-013	7.87143e-013	1.09751e-012	1.26422e-012	1.40805e-012	1.55193e-012	1.8625e-012	
FineR109	-1.86291e-012	-1.7199e-012	-1.57685e-012	-1.26718e-012	-1.12402e-012	-9.80816e-013	-6.7098e-013	-5.27668e-013	-2.40897e-013	-7.43831e-014	2.35714e-013	2.12679e-013	3.56242e-013	4.99855e-013	8.10141e-013	9.53858e-013	1.12044e-012	1.24144e-012	1.55195e-012	1.71857e-012	1.83984e-012	
FineR110	-1.83966e-012	-1.53012e-012	-1.43364e-012	-1.26718e-012	-1.10085e-012	-7.91091e-013	-6.7098e-013	-5.27668e-013	-2.17823e-013	-7.43007e-014	2.35714e-013	2.12679e-013	5.22855e-013	6.66473e-013	8.10141e-013	9.53858e-013	1.26426e-012	1.40808e-012	1.55195e-012	1.52905e-012	1.8852e-012	
MinCout:	0	FineR:	104	FineC:	131

