	CoarseC0	CoarseC10	CoarseC20	CoarseC30	CoarseC40	CoarseC50	CoarseC60	CoarseC70	CoarseC80	CoarseC90	CoarseC100	CoarseC110	CoarseC120	CoarseC130	CoarseC140	CoarseC150	CoarseC160	CoarseC170	CoarseC180	CoarseC190	CoarseC200	CoarseC210	CoarseC220	CoarseC230	CoarseC240	CoarseC250	
CoarseR0	-1.04291e-009	-9.93515e-010	-9.48383e-010	-9.09617e-010	-8.77124e-010	-8.4976e-010	-8.26146e-010	-8.06096e-010	-7.8864e-010	-7.73415e-010	-7.60348e-010	-7.48949e-010	-7.38924e-010	-7.29902e-010	-7.2229e-010	-7.15579e-010	-7.0981e-010	-7.04654e-010	-7.00235e-010	-6.96607e-010	-6.93293e-010	-6.90591e-010	-6.88277e-010	-6.86621e-010	-6.85629e-010	-6.84806e-010	
CoarseR10	-7.86422e-010	-7.34314e-010	-6.9183e-010	-6.56148e-010	-6.26036e-010	-6.00502e-010	-5.7848e-010	-5.5944e-010	-5.43021e-010	-5.28632e-010	-5.16116e-010	-5.05324e-010	-4.9597e-010	-4.87715e-010	-4.80692e-010	-4.7447e-010	-4.69602e-010	-4.65369e-010	-4.61812e-010	-4.58889e-010	-4.56501e-010	-4.54457e-010	-4.53163e-010	-4.52228e-010	-4.51617e-010	-4.5137e-010	
CoarseR20	-6.21194e-010	-5.6885e-010	-5.28868e-010	-4.95064e-010	-4.66654e-010	-4.42511e-010	-4.21676e-010	-4.03721e-010	-3.88028e-010	-3.74617e-010	-3.62928e-010	-3.52908e-010	-3.4423e-010	-3.36959e-010	-3.3087e-010	-3.25474e-010	-3.21048e-010	-3.17301e-010	-3.14283e-010	-3.11924e-010	-3.10273e-010	-3.08919e-010	-3.08131e-010	-3.08012e-010	-3.08078e-010	-3.08633e-010	
CoarseR30	-5.03357e-010	-4.52314e-010	-4.14266e-010	-3.82441e-010	-3.55056e-010	-3.32064e-010	-3.12132e-010	-2.95127e-010	-2.80414e-010	-2.67929e-010	-2.57041e-010	-2.47728e-010	-2.39867e-010	-2.33016e-010	-2.27418e-010	-2.22804e-010	-2.18778e-010	-2.1563e-010	-2.13543e-010	-2.11862e-010	-2.10763e-010	-2.10403e-010	-2.10339e-010	-2.11021e-010	-2.12265e-010	-2.13688e-010	
CoarseR40	-4.16025e-010	-3.66254e-010	-3.29576e-010	-2.99023e-010	-2.72644e-010	-2.5084e-010	-2.31785e-010	-2.15437e-010	-2.01643e-010	-1.89698e-010	-1.79434e-010	-1.70964e-010	-1.63656e-010	-1.57497e-010	-1.52438e-010	-1.48357e-010	-1.45333e-010	-1.42894e-010	-1.41292e-010	-1.4045e-010	-1.40369e-010	-1.4086e-010	-1.41888e-010	-1.43556e-010	-1.45939e-010	-1.48752e-010	
CoarseR50	-3.471e-010	-2.9891e-010	-2.63618e-010	-2.3372e-010	-2.08389e-010	-1.87501e-010	-1.6914e-010	-1.53754e-010	-1.40499e-010	-1.29087e-010	-1.19622e-010	-1.11468e-010	-1.04806e-010	-9.93369e-011	-9.50902e-011	-9.15244e-011	-8.91682e-011	-8.75333e-011	-8.6772e-011	-8.69269e-011	-8.78154e-011	-8.92808e-011	-9.16266e-011	-9.47255e-011	-9.85274e-011	-1.03097e-010	
CoarseR60	-2.91784e-010	-2.44667e-010	-2.10425e-010	-1.81812e-010	-1.57295e-010	-1.36815e-010	-1.19244e-010	-1.04298e-010	-9.16524e-011	-8.09971e-011	-7.1993e-011	-6.44799e-011	-5.84764e-011	-5.34854e-011	-4.98674e-011	-4.71335e-011	-4.54231e-011	-4.4965e-011	-4.50503e-011	-4.61882e-011	-4.84033e-011	-5.11423e-011	-5.51497e-011	-5.99983e-011	-6.64357e-011	-7.49047e-011	
CoarseR70	-2.45941e-010	-2.00475e-010	-1.66757e-010	-1.38893e-010	-1.15275e-010	-9.53988e-011	-7.87296e-011	-6.40334e-011	-5.20048e-011	-4.19369e-011	-3.3392e-011	-2.64957e-011	-2.09465e-011	-1.67723e-011	-1.38221e-011	-1.1892e-011	-1.1198e-011	-1.12107e-011	-1.26253e-011	-1.49577e-011	-1.85037e-011	-2.33637e-011	-2.98669e-011	-3.86216e-011	-4.75771e-011	-5.60113e-011	
CoarseR80	-2.07674e-010	-1.6307e-010	-1.30375e-010	-1.03067e-010	-7.9985e-011	-6.08241e-011	-4.43786e-011	-3.05807e-011	-1.87917e-011	-9.17026e-012	-1.23122e-012	5.02861e-012	9.92297e-012	1.34347e-011	1.59131e-011	1.68268e-011	1.66669e-011	1.54585e-011	1.28498e-011	8.87879e-012	3.03012e-012	-5.63512e-012	-1.45472e-011	-2.35986e-011	-3.26299e-011	-4.05537e-011	
CoarseR90	-1.74483e-010	-1.30791e-010	-9.87829e-011	-7.20089e-011	-4.94214e-011	-3.08203e-011	-1.47163e-011	-1.19063e-012	1.00098e-011	1.90154e-011	2.63221e-011	3.22821e-011	3.65328e-011	3.92057e-011	4.08294e-011	4.10502e-011	3.96838e-011	3.7086e-011	3.26207e-011	2.56209e-011	1.63264e-011	6.78474e-012	-2.68966e-012	-1.13554e-011	-1.95663e-011	-2.71384e-011	
CoarseR100	-1.45846e-010	-1.02771e-010	-7.14556e-011	-4.53498e-011	-2.33029e-011	-4.68527e-012	1.08027e-011	2.37806e-011	3.47192e-011	4.32666e-011	5.01204e-011	5.54222e-011	5.8978e-011	6.09605e-011	6.17288e-011	6.07148e-011	5.83096e-011	5.40119e-011	4.59493e-011	3.63216e-011	2.64902e-011	1.70704e-011	8.10454e-012	-7.23655e-015	-7.83431e-012	-1.48085e-011	
CoarseR110	-1.20636e-010	-7.83684e-011	-4.75719e-011	-2.17654e-011	-9.29296e-014	1.81176e-011	3.30658e-011	4.5792e-011	5.62862e-011	6.43758e-011	7.09408e-011	7.53738e-011	7.84145e-011	7.98892e-011	7.93997e-011	7.73345e-011	7.3199e-011	6.514e-011	5.51885e-011	4.49e-011	3.5335e-011	2.64531e-011	1.80711e-011	1.03917e-011	3.03731e-012	-3.63911e-012	
CoarseR120	-9.85586e-011	-5.67125e-011	-2.6386e-011	-9.01822e-013	2.04231e-011	3.80901e-011	5.29872e-011	6.52609e-011	7.51261e-011	8.31019e-011	8.91508e-011	9.30827e-011	9.52431e-011	9.59978e-011	9.46189e-011	9.07784e-011	8.29947e-011	7.32004e-011	6.26433e-011	5.29759e-011	4.40181e-011	3.5393e-011	2.75039e-011	2.01151e-011	1.28929e-011	6.52543e-012	
CoarseR130	-7.86994e-011	-3.7507e-011	-7.45971e-012	1.78332e-011	3.85951e-011	5.60362e-011	7.06896e-011	8.2722e-011	9.2283e-011	9.97657e-011	1.05314e-010	1.08715e-010	1.10354e-010	1.09824e-010	1.0702e-010	1.00467e-010	9.04724e-011	7.97457e-011	6.96076e-011	6.03868e-011	5.17191e-011	4.36002e-011	3.62037e-011	2.89634e-011	2.24573e-011	1.61026e-011	
CoarseR140	-6.06989e-011	-2.00558e-011	9.68124e-012	3.46413e-011	5.55662e-011	7.26087e-011	8.70008e-011	9.87366e-011	1.0801e-010	1.15003e-010	1.20021e-010	1.22879e-010	1.23564e-010	1.2215e-010	1.17284e-010	1.07433e-010	9.64934e-011	8.64138e-011	7.6751e-011	6.7833e-011	5.94941e-011	5.17029e-011	4.43053e-011	3.76291e-011	3.13101e-011	2.55576e-011	
CoarseR150	-4.4501e-011	-4.20616e-012	2.52966e-011	5.00527e-011	7.06565e-011	8.76397e-011	1.01772e-010	1.13033e-010	1.21992e-010	1.2879e-010	1.33279e-010	1.35406e-010	1.3538e-010	1.3231e-010	1.23957e-010	1.13138e-010	1.02574e-010	9.28093e-011	8.34625e-011	7.49047e-011	6.70918e-011	5.95036e-011	5.24692e-011	4.58262e-011	3.97318e-011	3.40354e-011	
CoarseR160	-2.96716e-011	1.03578e-011	3.96308e-011	6.43179e-011	8.46373e-011	1.01581e-010	1.1542e-010	1.26574e-010	1.35213e-010	1.41488e-010	1.45418e-010	1.46772e-010	1.45849e-010	1.39923e-010	1.29879e-010	1.18776e-010	1.08708e-010	9.91127e-011	9.01124e-011	8.19192e-011	7.41176e-011	6.69222e-011	6.02956e-011	5.36787e-011	4.7858e-011	4.23787e-011	
CoarseR170	-1.62705e-011	2.35436e-011	5.28105e-011	7.69489e-011	9.72661e-011	1.13978e-010	1.27719e-010	1.38547e-010	1.47011e-010	1.52948e-010	1.56477e-010	1.57107e-010	1.547e-010	1.45927e-010	1.35112e-010	1.24367e-010	1.14457e-010	1.05419e-010	9.66161e-011	8.86272e-011	8.12487e-011	7.41038e-011	6.75091e-011	6.1358e-011	5.55722e-011	5.03923e-011	
CoarseR180	-4.06636e-012	3.56777e-011	6.46784e-011	8.8761e-011	1.09055e-010	1.25455e-010	1.39101e-010	1.4999e-010	1.57909e-010	1.63494e-010	1.66494e-010	1.66354e-010	1.61576e-010	1.5124e-010	1.4014e-010	1.29903e-010	1.2041e-010	1.11345e-010	1.02787e-010	9.50065e-011	8.78857e-011	8.11606e-011	7.46752e-011	6.87702e-011	6.32885e-011	5.79626e-011	
CoarseR190	6.96528e-012	4.67363e-011	7.55727e-011	9.96689e-011	1.19677e-010	1.36203e-010	1.49742e-010	1.60297e-010	1.68287e-010	1.7328e-010	1.75503e-010	1.74462e-010	1.67113e-010	1.56207e-010	1.45271e-010	1.35242e-010	1.25953e-010	1.17314e-010	1.08954e-010	1.01663e-010	9.45736e-011	8.7717e-011	8.16998e-011	7.59025e-011	7.03137e-011	6.53274e-011	
CoarseR200	1.74112e-011	5.69017e-011	8.57059e-011	1.09596e-010	1.29802e-010	1.46196e-010	1.59648e-010	1.69881e-010	1.77475e-010	1.82119e-010	1.8395e-010	1.81826e-010	1.72019e-010	1.60695e-010	1.50352e-010	1.40708e-010	1.31664e-010	1.23279e-010	1.15358e-010	1.07712e-010	1.00902e-010	9.43435e-011	8.84382e-011	8.27261e-011	7.72329e-011	7.23671e-011	
CoarseR210	2.69241e-011	6.63119e-011	9.51341e-011	1.19146e-010	1.39054e-010	1.55414e-010	1.68707e-010	1.78809e-010	1.86251e-010	1.90513e-010	1.91812e-010	1.87151e-010	1.76803e-010	1.65862e-010	1.55523e-010	1.45957e-010	1.37142e-010	1.28997e-010	1.21142e-010	1.13981e-010	1.07249e-010	1.00798e-010	9.49854e-011	8.95972e-011	8.40087e-011	7.94908e-011	
CoarseR220	3.53985e-011	7.48228e-011	1.03837e-010	1.27829e-010	1.47697e-010	1.63955e-010	1.77154e-010	1.87455e-010	1.94347e-010	1.98239e-010	1.99008e-010	1.92347e-010	1.81243e-010	1.70532e-010	1.6044e-010	1.51114e-010	1.42721e-010	1.34681e-010	1.27119e-010	1.19823e-010	1.13222e-010	1.07056e-010	1.01312e-010	9.58816e-011	9.08216e-011	8.60129e-011	
CoarseR230	4.36803e-011	8.28868e-011	1.11923e-010	1.35769e-010	1.55889e-010	1.72067e-010	1.85127e-010	1.95288e-010	2.022e-010	2.05726e-010	2.05523e-010	1.97132e-010	1.85789e-010	1.7529e-010	1.65459e-010	1.56565e-010	1.48082e-010	1.40288e-010	1.32641e-010	1.25832e-010	1.19323e-010	1.13306e-010	1.07516e-010	1.02361e-010	9.70232e-011	9.2334e-011	
CoarseR240	5.1066e-011	9.01854e-011	1.19235e-010	1.43337e-010	1.63407e-010	1.796e-010	1.92747e-010	2.0241e-010	2.09154e-010	2.12703e-010	2.11462e-010	2.01503e-010	1.90381e-010	1.80105e-010	1.70565e-010	1.61567e-010	1.53505e-010	1.45664e-010	1.3849e-010	1.31629e-010	1.25234e-010	1.19288e-010	1.1343e-010	1.08406e-010	1.03631e-010	9.87059e-011	
CoarseR250	5.79009e-011	9.73174e-011	1.26323e-010	1.50224e-010	1.7044e-010	1.86725e-010	1.99744e-010	2.09632e-010	2.16021e-010	2.18849e-010	2.1628e-010	2.05711e-010	1.95046e-010	1.85057e-010	1.75518e-010	1.66623e-010	1.58711e-010	1.51126e-010	1.43848e-010	1.37121e-010	1.31045e-010	1.25225e-010	1.19517e-010	1.14435e-010	1.09602e-010	1.05021e-010	
MinCout:	-7.23655e-015	CoarseR:	100	CoarseC:	230

	CoarseC30	CoarseC31	CoarseC32	CoarseC33	CoarseC34	CoarseC35	CoarseC36	CoarseC37	CoarseC38	CoarseC39	CoarseC40	CoarseC41	CoarseC42	CoarseC43	CoarseC44	CoarseC45	CoarseC46	CoarseC47	CoarseC48	CoarseC49	CoarseC50	
CoarseR100	-4.51508e-011	-4.26784e-011	-4.03448e-011	-3.82065e-011	-3.60397e-011	-3.35563e-011	-3.15774e-011	-2.9572e-011	-2.71314e-011	-2.50944e-011	-2.31319e-011	-2.11173e-011	-1.91722e-011	-1.713e-011	-1.54937e-011	-1.34946e-011	-1.16814e-011	-9.84708e-012	-8.03006e-012	-6.35879e-012	-4.70698e-012	
CoarseR101	-4.27534e-011	-4.01383e-011	-3.7953e-011	-3.56425e-011	-3.33335e-011	-3.10214e-011	-2.90429e-011	-2.70104e-011	-2.45465e-011	-2.25606e-011	-2.05747e-011	-1.88977e-011	-1.66136e-011	-1.47651e-011	-1.29609e-011	-1.11058e-011	-9.14926e-012	-7.48317e-012	-5.64559e-012	-3.82728e-012	-2.15343e-012	
CoarseR102	-4.02289e-011	-3.75906e-011	-3.5399e-011	-3.32869e-011	-3.09492e-011	-2.86095e-011	-2.6635e-011	-2.46546e-011	-2.21639e-011	-2.02048e-011	-1.81669e-011	-1.63733e-011	-1.42095e-011	-1.2554e-011	-1.05808e-011	-8.91899e-012	-6.77015e-012	-5.25236e-012	-3.29043e-012	-1.62013e-012	5.24419e-014	
CoarseR103	-3.78279e-011	-3.5217e-011	-3.31949e-011	-3.08601e-011	-2.85515e-011	-2.62647e-011	-2.42625e-011	-2.22825e-011	-1.9792e-011	-1.7809e-011	-1.58213e-011	-1.39528e-011	-1.18401e-011	-1.01602e-011	-8.18732e-012	-6.35739e-012	-4.5479e-012	-2.86035e-012	-8.98819e-013	7.71003e-013	2.44311e-012	
CoarseR104	-3.54411e-011	-3.29703e-011	-3.08339e-011	-2.86688e-011	-2.63068e-011	-2.40206e-011	-2.2019e-011	-2.00399e-011	-1.75763e-011	-1.55674e-011	-1.35804e-011	-1.17615e-011	-9.62401e-012	-7.77642e-012	-5.94894e-012	-4.14345e-012	-2.1651e-012	-5.00596e-013	1.33696e-012	3.15302e-012	4.82446e-012	
CoarseR105	-3.30407e-011	-3.05411e-011	-2.85753e-011	-2.62696e-011	-2.39329e-011	-2.16216e-011	-1.96203e-011	-1.76416e-011	-1.5152e-011	-1.33626e-011	-1.13519e-011	-9.36409e-012	-7.22704e-012	-5.71803e-012	-3.72242e-012	-1.74732e-012	8.45002e-014	1.57779e-012	3.53838e-012	5.22981e-012	6.8782e-012	
CoarseR106	-3.06267e-011	-2.81568e-011	-2.59948e-011	-2.38311e-011	-2.16903e-011	-1.92092e-011	-1.72082e-011	-1.5205e-011	-1.29352e-011	-1.0927e-011	-8.94101e-012	-6.9533e-012	-4.96221e-012	-3.30841e-012	-1.3128e-012	5.15459e-013	2.32291e-012	4.15645e-012	5.94702e-012	7.61558e-012	9.13689e-012	
CoarseR107	-2.83935e-011	-2.59239e-011	-2.3762e-011	-2.14283e-011	-1.94326e-011	-1.69521e-011	-1.49769e-011	-1.27784e-011	-1.06796e-011	-8.67186e-012	-6.71164e-012	-4.86837e-012	-2.53812e-012	-8.85327e-013	9.16395e-013	2.76772e-012	4.72155e-012	6.4078e-012	8.19686e-012	9.86464e-012	1.15335e-011	
CoarseR108	-2.61214e-011	-2.36525e-011	-2.14909e-011	-1.91577e-011	-1.71884e-011	-1.47082e-011	-1.25638e-011	-1.05348e-011	-8.2409e-012	-6.25851e-012	-4.2739e-012	-2.60191e-012	-4.65812e-013	1.18628e-012	3.18156e-012	4.83806e-012	6.81492e-012	8.50055e-012	1.04819e-011	1.2127e-011	1.36021e-011	
CoarseR109	-2.38905e-011	-2.14218e-011	-1.94032e-011	-1.70721e-011	-1.49321e-011	-1.24522e-011	-1.06207e-011	-8.6443e-012	-6.18188e-012	-4.3437e-012	-2.38433e-012	-3.72468e-013	1.59252e-012	3.41532e-012	5.26309e-012	7.09058e-012	9.06609e-012	1.07289e-011	1.2368e-011	1.40578e-011	1.56819e-011	
CoarseR110	-2.15917e-011	-1.9124e-011	-1.69627e-011	-1.48296e-011	-1.26897e-011	-1.03522e-011	-8.35292e-012	-6.37705e-012	-4.08367e-012	-2.07703e-012	5.34663e-014	1.72406e-012	4.05404e-012	5.70512e-012	7.5289e-012	9.35516e-012	1.11609e-011	1.28219e-011	1.48041e-011	1.64682e-011	1.79671e-011	
CoarseR111	-1.95104e-011	-1.68423e-011	-1.46812e-011	-1.27164e-011	-1.03819e-011	-8.07173e-012	-6.07287e-012	-3.9257e-012	-1.80443e-012	3.73657e-013	2.1852e-012	4.00226e-012	6.13749e-012	7.78797e-012	9.80604e-012	1.14613e-011	1.34131e-011	1.50738e-011	1.69064e-011	1.85503e-011	2.02394e-011	
CoarseR112	-1.72147e-011	-1.4915e-011	-1.25865e-011	-1.04224e-011	-8.28763e-012	-5.9773e-012	-3.83271e-012	-1.8316e-012	4.86624e-013	2.29832e-012	4.28109e-012	6.12194e-012	8.23065e-012	9.90413e-012	1.17284e-011	1.37257e-011	1.55286e-011	1.72126e-011	1.8998e-011	2.04915e-011	2.21587e-011	
CoarseR113	-1.51348e-011	-1.28355e-011	-1.05068e-011	-8.51556e-012	-6.18183e-012	-3.872e-012	-1.87393e-012	7.83912e-014	2.24965e-012	4.37681e-012	6.21125e-012	8.02756e-012	1.01361e-011	1.20064e-011	1.38055e-011	1.54825e-011	1.74576e-011	1.9117e-011	2.09268e-011	2.25671e-011	2.42341e-011	
CoarseR114	-1.29888e-011	-1.07182e-011	-8.52965e-012	-6.22585e-012	-4.06039e-012	-1.95042e-012	2.2022e-013	2.22033e-012	4.51243e-012	6.51765e-012	8.49941e-012	1.03156e-011	1.22772e-011	1.41238e-011	1.57726e-011	1.77695e-011	1.95488e-011	2.12322e-011	2.32132e-011	2.47265e-011	2.63684e-011	
CoarseR115	-1.10544e-011	-8.44352e-012	-6.42834e-012	-4.12459e-012	-1.93234e-012	3.50061e-013	2.34744e-012	4.32067e-012	6.63888e-012	8.44818e-012	1.04552e-011	1.22709e-011	1.44018e-011	1.62229e-011	1.78963e-011	1.97221e-011	2.16936e-011	2.31804e-011	2.49878e-011	2.6651e-011	2.84688e-011	
CoarseR116	-8.91385e-012	-6.47671e-012	-4.28858e-012	-2.15324e-012	1.79602e-013	2.4618e-012	4.45892e-012	6.28931e-012	8.60537e-012	1.0585e-011	1.25657e-011	1.44048e-011	1.63671e-011	1.82106e-011	1.98348e-011	2.18312e-011	2.36562e-011	2.52921e-011	2.70971e-011	2.87596e-011	3.04286e-011	
CoarseR117	-6.99248e-012	-4.52771e-012	-2.33992e-012	-2.04945e-013	1.93277e-012	4.43643e-012	6.26403e-012	8.23583e-012	1.05268e-011	1.25308e-011	1.43172e-011	1.6156e-011	1.83114e-011	2.01318e-011	2.1977e-011	2.36032e-011	2.5577e-011	2.70626e-011	2.90424e-011	3.05326e-011	3.21971e-011	
CoarseR118	-4.85892e-012	-2.56255e-012	-4.02415e-013	1.78086e-012	3.91802e-012	6.19929e-012	8.39484e-012	1.01988e-011	1.26588e-011	1.44663e-011	1.64723e-011	1.82872e-011	2.02719e-011	2.20919e-011	2.37372e-011	2.5562e-011	2.75316e-011	2.92131e-011	3.08218e-011	3.2657e-011	3.41487e-011	
CoarseR119	-2.91726e-012	-4.18231e-013	1.76877e-012	3.72846e-012	6.03396e-012	8.36833e-012	1.05108e-011	1.23396e-011	1.46296e-011	1.6463e-011	1.84416e-011	2.02558e-011	2.24102e-011	2.40591e-011	2.58779e-011	2.76988e-011	2.95003e-011	3.11814e-011	3.27891e-011	3.4624e-011	3.62874e-011	
CoarseR120	-9.01822e-013	1.73586e-012	3.55274e-012	5.90952e-012	8.01986e-012	1.0326e-011	1.23212e-011	1.44934e-011	1.66378e-011	1.86162e-011	2.05944e-011	2.22339e-011	2.43919e-011	2.60591e-011	2.78806e-011	2.96787e-011	3.14769e-011	3.31603e-011	3.49597e-011	3.64476e-011	3.81101e-011	
MinCout:	5.24419e-014	CoarseR:	102	CoarseC:	50

	FineC0	FineC10	FineC20	FineC30	FineC40	FineC50	FineC60	FineC70	FineC80	FineC90	FineC100	FineC110	FineC120	FineC130	FineC140	FineC150	FineC160	FineC170	FineC180	FineC190	FineC200	FineC210	FineC220	FineC230	FineC240	FineC250	
FineR0	-1.44648e-010	-1.14246e-010	-9.64711e-011	-8.34431e-011	-7.36772e-011	-6.60746e-011	-5.99463e-011	-5.50759e-011	-5.09339e-011	-4.74276e-011	-4.4535e-011	-4.17852e-011	-3.96319e-011	-3.76644e-011	-3.59695e-011	-3.44407e-011	-3.28887e-011	-3.18206e-011	-3.05801e-011	-2.95169e-011	-2.87607e-011	-2.78411e-011	-2.7068e-011	-2.64603e-011	-2.56893e-011	-2.52551e-011	
FineR10	-1.27636e-010	-9.75309e-011	-7.95995e-011	-6.67752e-011	-5.7122e-011	-4.95266e-011	-4.34031e-011	-3.85398e-011	-3.45919e-011	-3.10887e-011	-2.801e-011	-2.55947e-011	-2.34447e-011	-2.13164e-011	-1.96201e-011	-1.80931e-011	-1.67123e-011	-1.54758e-011	-1.44309e-011	-1.35115e-011	-1.25908e-011	-1.16707e-011	-1.08985e-011	-1.02935e-011	-9.52125e-012	-9.06636e-012	
FineR20	-1.19949e-010	-8.99816e-011	-7.22235e-011	-5.93751e-011	-4.97615e-011	-4.21395e-011	-3.61894e-011	-3.11639e-011	-2.72206e-011	-2.37209e-011	-2.08358e-011	-1.82334e-011	-1.59409e-011	-1.41036e-011	-1.22653e-011	-1.07399e-011	-9.529e-012	-8.12531e-012	-7.05915e-012	-6.16347e-012	-5.24395e-012	-4.30205e-012	-3.55255e-012	-2.94917e-012	-2.15521e-012	-1.72298e-012	
FineR30	-1.15565e-010	-8.56034e-011	-6.78546e-011	-5.49857e-011	-4.55684e-011	-3.77851e-011	-3.18361e-011	-2.69812e-011	-2.28732e-011	-1.95181e-011	-1.66126e-011	-1.40125e-011	-1.19143e-011	-9.74041e-012	-8.07215e-012	-6.54807e-012	-5.16943e-012	-4.10648e-012	-2.89481e-012	-1.80621e-012	-8.87518e-013	-1.17768e-013	4.61896e-013	1.23348e-012	2.00581e-012	2.45869e-012	
FineR40	-1.12875e-010	-8.2884e-011	-6.51155e-011	-5.21129e-011	-4.26738e-011	-3.50608e-011	-2.91409e-011	-2.40973e-011	-2.01598e-011	-1.64954e-011	-1.37599e-011	-1.11611e-011	-8.8703e-012	-6.89118e-012	-5.22388e-012	-3.70057e-012	-2.32252e-012	-1.28238e-012	-1.96138e-013	8.91747e-013	1.80765e-012	2.72683e-012	3.32747e-012	4.09854e-012	4.87074e-012	5.32303e-012	
FineR50	-1.10932e-010	-8.09896e-011	-6.31946e-011	-5.0386e-011	-4.09182e-011	-3.33087e-011	-2.72278e-011	-2.23502e-011	-1.80533e-011	-1.4728e-011	-1.19927e-011	-9.25069e-012	-7.1075e-012	-5.12946e-012	-3.29371e-012	-1.77128e-012	-5.85952e-013	8.164e-013	1.70881e-012	2.79626e-012	3.73568e-012	4.48261e-012	5.40284e-012	6.00165e-012	6.62503e-012	7.22567e-012	
FineR60	-1.09374e-010	-7.94311e-011	-6.16709e-011	-4.90067e-011	-3.93734e-011	-3.17664e-011	-2.58514e-011	-2.08387e-011	-1.68778e-011	-1.32159e-011	-1.04827e-011	-7.88605e-012	-5.7672e-012	-3.61974e-012	-2.12443e-012	-6.02663e-013	7.96741e-013	2.17598e-012	3.23905e-012	4.1325e-012	5.04995e-012	5.98994e-012	6.73815e-012	7.3606e-012	7.95973e-012	8.75424e-012	
FineR70	-1.08273e-010	-7.8428e-011	-6.0666e-011	-4.7674e-011	-3.82387e-011	-3.06362e-011	-2.47215e-011	-1.9682e-011	-1.5579e-011	-1.22298e-011	-9.32876e-012	-6.73273e-012	-4.59125e-012	-2.63772e-012	-9.72733e-013	5.48634e-013	1.92511e-012	3.13308e-012	4.19573e-012	5.28256e-012	6.22154e-012	6.94626e-012	7.71566e-012	8.50787e-012	9.08779e-012	9.70925e-012	
FineR80	-1.07485e-010	-7.74849e-011	-5.97239e-011	-4.68965e-011	-3.72671e-011	-2.96634e-011	-2.37255e-011	-1.87133e-011	-1.47814e-011	-1.12895e-011	-8.36409e-012	-5.79337e-012	-3.67572e-012	-1.8455e-012	-1.14186e-014	1.50935e-012	2.71542e-012	4.09401e-012	4.98501e-012	6.24142e-012	7.13623e-012	7.73441e-012	8.50351e-012	9.2523e-012	1.00452e-011	1.04754e-011	
FineR90	-1.0673e-010	-7.68925e-011	-5.91347e-011	-4.61459e-011	-3.65171e-011	-2.89139e-011	-2.29765e-011	-1.81322e-011	-1.40069e-011	-1.05159e-011	-7.7853e-012	-5.19083e-012	-3.07459e-012	-9.28331e-013	5.65356e-013	2.2565e-012	3.6324e-012	4.69242e-012	5.92439e-012	6.8167e-012	7.73362e-012	8.67347e-012	9.44246e-012	1.00421e-011	1.06416e-011	1.12648e-011	
FineR100	-1.06098e-010	-7.62998e-011	-5.83537e-011	-4.55588e-011	-3.59317e-011	-2.8496e-011	-2.24192e-011	-1.75503e-011	-1.35955e-011	-9.93554e-012	-7.20545e-012	-4.61149e-012	-2.49567e-012	-3.49849e-013	1.31395e-012	2.66357e-012	4.03899e-012	5.26973e-012	6.50149e-012	7.39427e-012	8.31035e-012	9.25006e-012	1.00189e-011	1.07675e-011	1.12178e-011	1.19903e-011	
FineR110	-1.05544e-010	-7.55773e-011	-5.79618e-011	-4.51402e-011	-3.55419e-011	-2.7941e-011	-2.20052e-011	-1.69949e-011	-1.2895e-011	-9.52422e-012	-6.47992e-012	-4.22518e-012	-1.76982e-012	5.93239e-014	1.89271e-012	3.41276e-012	4.59518e-012	5.82489e-012	6.88643e-012	7.97103e-012	8.86525e-012	9.80492e-012	1.04034e-011	1.1152e-011	1.17724e-011	1.23954e-011	
FineR120	-1.05306e-010	-7.51446e-011	-5.75636e-011	-4.45806e-011	-3.4983e-011	-2.75487e-011	-2.14473e-011	-1.6605e-011	-1.24811e-011	-9.13583e-012	-6.26199e-012	-3.66849e-012	-1.55305e-012	4.22158e-013	2.27858e-012	3.79828e-012	5.00328e-012	6.381e-012	7.44246e-012	8.35682e-012	9.42122e-012	1.0189e-011	1.07873e-011	1.15579e-011	1.23283e-011	1.28009e-011	
FineR130	-1.0473e-010	-7.47824e-011	-5.72012e-011	-4.43818e-011	-3.47582e-011	-2.71595e-011	-2.12255e-011	-1.63843e-011	-1.20671e-011	-8.77267e-012	-5.70479e-012	-3.11146e-012	-9.96147e-013	1.00234e-012	2.66522e-012	4.18479e-012	5.5368e-012	6.59605e-012	7.82741e-012	8.91312e-012	9.63548e-012	1.05749e-011	1.13435e-011	1.20918e-011	1.25418e-011	1.33349e-011	
FineR140	-1.04379e-010	-7.4589e-011	-5.68092e-011	-4.4019e-011	-3.43952e-011	-2.67964e-011	-2.08601e-011	-1.60211e-011	-1.17546e-011	-8.38481e-012	-5.51052e-012	-2.91754e-012	-7.78746e-013	1.3659e-012	3.0288e-012	4.37762e-012	5.75242e-012	6.98184e-012	8.19107e-012	9.10523e-012	1.00207e-011	1.09387e-011	1.17072e-011	1.23286e-011	1.29055e-011	1.36988e-011	
FineR150	-1.04175e-010	-7.42264e-011	-5.64405e-011	-4.36234e-011	-3.40286e-011	-2.6404e-011	-2.04968e-011	-1.56307e-011	-1.15333e-011	-8.0204e-012	-5.29203e-012	-2.69959e-012	-5.85066e-013	1.41274e-012	3.24507e-012	4.76411e-012	5.96847e-012	7.34564e-012	8.40658e-012	9.4691e-012	1.03846e-011	1.1152e-011	1.1922e-011	1.26912e-011	1.32904e-011	1.39131e-011	
FineR160	-1.04016e-010	-7.39939e-011	-5.62467e-011	-4.34251e-011	-3.38346e-011	-2.62073e-011	-2.02749e-011	-1.54352e-011	-1.13133e-011	-7.82652e-012	-4.95251e-012	-2.33577e-012	-2.21195e-013	1.92331e-012	3.43851e-012	4.95738e-012	6.33178e-012	7.5386e-012	8.74777e-012	9.68354e-012	1.05772e-011	1.15165e-011	1.22848e-011	1.28832e-011	1.34827e-011	1.4255e-011	
FineR170	-1.03812e-010	-7.38237e-011	-5.6047e-011	-4.32592e-011	-3.36371e-011	-2.60397e-011	-2.01067e-011	-1.52412e-011	-1.095e-011	-7.46185e-012	-4.73376e-012	-2.16559e-012	1.66441e-013	2.11704e-012	3.60901e-012	5.15128e-012	6.50256e-012	7.90273e-012	8.94068e-012	9.85463e-012	1.07926e-011	1.16878e-011	1.24562e-011	1.32478e-011	1.36974e-011	1.44696e-011	
FineR180	-1.0345e-010	-7.3462e-011	-5.5812e-011	-4.30607e-011	-3.34395e-011	-2.58429e-011	-1.99364e-011	-1.48764e-011	-1.07547e-011	-7.26698e-012	-4.53875e-012	-1.97133e-012	3.36683e-013	2.33418e-012	3.99614e-012	5.34416e-012	6.88925e-012	8.09502e-012	9.15558e-012	1.00475e-011	1.09627e-011	1.19018e-011	1.26488e-011	1.34404e-011	1.38675e-011	1.46397e-011	
FineR190	-1.0337e-010	-7.32604e-011	-5.56485e-011	-4.26657e-011	-3.3104e-011	-2.56434e-011	-1.97122e-011	-1.4706e-011	-1.05844e-011	-7.24121e-012	-4.17497e-012	-1.77727e-012	5.06953e-013	2.33433e-012	4.16638e-012	5.68515e-012	7.05947e-012	8.09494e-012	9.32576e-012	1.02394e-011	1.11555e-011	1.20719e-011	1.28626e-011	1.36105e-011	1.40601e-011	1.48529e-011	
FineR200	-1.032e-010	-7.32204e-011	-5.54781e-011	-4.26645e-011	-3.30451e-011	-2.56161e-011	-1.95446e-011	-1.45102e-011	-1.05838e-011	-7.07085e-012	-4.17457e-012	-1.58289e-012	7.24849e-013	2.52825e-012	4.36012e-012	5.87871e-012	7.22972e-012	8.28819e-012	9.34856e-012	1.0604e-011	1.1519e-011	1.22861e-011	1.30328e-011	1.36313e-011	1.44234e-011	1.50232e-011	
FineR210	-1.03041e-010	-7.30501e-011	-5.54769e-011	-4.24941e-011	-3.28747e-011	-2.52795e-011	-1.93482e-011	-1.45096e-011	-1.03623e-011	-6.87698e-012	-4.0042e-012	-1.41253e-012	7.25124e-013	2.86884e-012	4.38325e-012	5.90147e-012	7.27531e-012	8.65182e-012	9.71214e-012	1.06256e-011	1.15189e-011	1.22859e-011	1.32258e-011	1.38015e-011	1.44232e-011	1.50436e-011	
FineR220	-1.02826e-010	-7.28497e-011	-5.51089e-011	-4.22965e-011	-3.2843e-011	-2.52495e-011	-1.93454e-011	-1.41446e-011	-1.02185e-011	-6.68121e-012	-3.80985e-012	-1.38796e-012	9.19083e-013	2.8924e-012	4.72413e-012	6.24259e-012	7.44557e-012	8.65183e-012	9.88244e-012	1.07959e-011	1.17107e-011	1.26494e-011	1.33961e-011	1.4017e-011	1.46143e-011	1.50641e-011	
FineR230	-1.0286e-010	-7.28797e-011	-5.50725e-011	-4.22627e-011	-3.26735e-011	-2.48838e-011	-1.89542e-011	-1.4117e-011	-1.0022e-011	-6.65533e-012	-3.61468e-012	-1.21801e-012	1.0895e-012	3.08613e-012	4.7473e-012	6.26539e-012	7.63912e-012	8.67399e-012	9.90432e-012	1.09674e-011	1.18823e-011	1.26493e-011	1.33959e-011	1.41648e-011	1.47864e-011	1.54068e-011	
FineR240	-1.02622e-010	-7.2847e-011	-5.50712e-011	-4.21205e-011	-3.2503e-011	-2.48537e-011	-1.89793e-011	-1.41162e-011	-9.82715e-012	-6.51073e-012	-3.6142e-012	-1.02336e-012	1.08983e-012	3.06269e-012	4.91804e-012	6.26554e-012	7.63922e-012	9.01558e-012	1.00757e-011	1.09891e-011	1.19037e-011	1.28424e-011	1.3589e-011	1.41856e-011	1.49776e-011	1.54066e-011	
FineR250	-1.02655e-010	-7.26465e-011	-5.48724e-011	-4.19229e-011	-3.23368e-011	-2.48793e-011	-1.87836e-011	-1.3921e-011	-9.82647e-012	-6.48483e-012	-3.4442e-012	-8.29163e-013	1.28386e-012	3.25656e-012	5.08791e-012	6.60603e-012	7.80951e-012	9.03778e-012	1.00977e-011	1.11595e-011	1.20741e-011	1.28196e-011	1.35874e-011	1.43787e-011	1.49758e-011	1.55995e-011	
MinCout:	-1.14186e-014	FineR:	80	FineC:	140

	FineC110	FineC111	FineC112	FineC113	FineC114	FineC115	FineC116	FineC117	FineC118	FineC119	FineC120	FineC121	FineC122	FineC123	FineC124	FineC125	FineC126	FineC127	FineC128	FineC129	FineC130	
FineR150	-2.69959e-012	-2.38403e-012	-2.06875e-012	-1.92301e-012	-1.60723e-012	-1.48522e-012	-1.3393e-012	-1.02332e-012	-8.77289e-013	-7.31203e-013	-5.85066e-013	-2.68858e-013	-1.22612e-013	1.93701e-013	5.33702e-013	6.5656e-013	8.03049e-013	9.73067e-013	1.26625e-012	1.43628e-012	1.58295e-012	
FineR151	-2.69959e-012	-2.38403e-012	-2.23837e-012	-1.92301e-012	-1.60723e-012	-1.46138e-012	-1.16931e-012	-1.02332e-012	-8.77289e-013	-7.31203e-013	-4.15053e-013	-2.45115e-013	-9.89033e-014	1.93715e-013	3.4007e-013	6.5656e-013	8.02981e-013	9.49496e-013	1.24268e-012	1.24268e-012	1.58279e-012	
FineR152	-2.5299e-012	-2.38427e-012	-2.06841e-012	-1.7771e-012	-1.60723e-012	-1.46138e-012	-1.14548e-012	-9.99518e-013	-8.77375e-013	-5.61197e-013	-4.15053e-013	-2.68858e-013	4.74117e-014	1.93715e-013	3.4007e-013	4.86477e-013	8.02981e-013	9.49496e-013	1.09606e-012	1.58296e-012	1.55942e-012	
FineR153	-2.5299e-012	-2.38427e-012	-2.06862e-012	-1.92288e-012	-1.63126e-012	-1.29139e-012	-1.16942e-012	-9.99518e-013	-6.83503e-013	-5.37431e-013	-3.91307e-013	-9.88433e-014	4.74117e-014	1.93715e-013	5.33771e-013	6.56517e-013	8.02981e-013	9.49496e-013	1.11965e-012	1.41274e-012	1.55942e-012	
FineR154	-2.5299e-012	-2.2143e-012	-2.06841e-012	-1.94679e-012	-1.631e-012	-1.29139e-012	-1.16942e-012	-1.02342e-012	-6.83503e-013	-5.61248e-013	-4.15091e-013	-7.51145e-014	7.11175e-014	2.17401e-013	5.33771e-013	6.56517e-013	8.02981e-013	9.49496e-013	1.26612e-012	1.43631e-012	1.55942e-012	
FineR155	-2.5299e-012	-2.2143e-012	-2.06862e-012	-1.92288e-012	-1.631e-012	-1.46112e-012	-9.99412e-013	-8.53409e-013	-6.83563e-013	-3.6745e-013	-2.45058e-013	-7.51145e-014	7.11175e-014	3.8743e-013	5.33771e-013	6.80163e-013	8.26607e-013	1.14315e-012	1.28971e-012	1.43631e-012	1.75303e-012	
FineR156	-2.35993e-012	-2.2143e-012	-2.06862e-012	-1.72882e-012	-1.631e-012	-1.46112e-012	-1.14526e-012	-8.53409e-013	-6.83503e-013	-3.67424e-013	-2.45058e-013	-7.51145e-014	2.17467e-013	3.8743e-013	5.33771e-013	6.80163e-013	9.96653e-013	1.14315e-012	1.28971e-012	1.60637e-012	1.75303e-012	
FineR157	-2.33596e-012	-2.35993e-012	-1.89864e-012	-1.7529e-012	-1.6071e-012	-1.29126e-012	-1.14536e-012	-8.29597e-013	-5.13542e-013	-3.91222e-013	-2.21307e-013	9.49035e-014	2.41141e-013	3.6379e-013	5.33771e-013	8.50204e-013	9.96653e-013	1.14315e-012	1.45976e-012	1.60637e-012	1.75303e-012	
FineR158	-2.50551e-012	-2.02037e-012	-1.89864e-012	-1.7529e-012	-1.58306e-012	-1.29126e-012	-1.14536e-012	-8.29403e-013	-7.07206e-013	-3.67424e-013	-2.21307e-013	9.49035e-014	2.41141e-013	3.8743e-013	7.03806e-013	8.50204e-013	9.96653e-013	9.73027e-013	1.45976e-012	1.60637e-012	1.75303e-012	
FineR159	-2.33555e-012	-2.18996e-012	-1.8747e-012	-1.72898e-012	-1.43711e-012	-1.29126e-012	-1.14536e-012	-8.05502e-013	-6.83394e-013	-5.37334e-013	-1.97418e-013	9.49263e-014	7.11947e-014	5.57531e-013	7.03892e-013	8.50304e-013	9.96768e-013	1.33681e-012	1.45976e-012	1.60655e-012	1.94665e-012	
FineR160	-2.33555e-012	-2.21415e-012	-1.8747e-012	-1.559e-012	-1.41322e-012	-1.29126e-012	-9.7536e-013	-8.29403e-013	-6.83394e-013	-3.67313e-013	-2.21195e-013	-7.50259e-014	7.11947e-014	3.87511e-013	7.03892e-013	8.50304e-013	9.96713e-013	1.1432e-012	1.45993e-012	1.60655e-012	1.92331e-012	
FineR161	-2.35977e-012	-2.18996e-012	-1.89849e-012	-1.559e-012	-1.41322e-012	-1.09739e-012	-9.51508e-013	-8.29403e-013	-5.13379e-013	-3.67313e-013	-2.21195e-013	-7.50259e-014	2.41233e-013	3.87511e-013	5.5746e-013	8.50276e-013	9.96713e-013	1.1667e-012	1.45982e-012	1.62982e-012	1.75306e-012	
FineR162	-2.35977e-012	-1.99602e-012	-1.89849e-012	-1.72865e-012	-1.41322e-012	-1.09739e-012	-9.51508e-013	-8.05571e-013	-4.89567e-013	-3.67313e-013	-1.97423e-013	9.50064e-014	2.41233e-013	3.87511e-013	7.03889e-013	8.50276e-013	9.96713e-013	1.1432e-012	1.45982e-012	1.60641e-012	1.77644e-012	
FineR163	-2.33577e-012	-2.02018e-012	-1.87453e-012	-1.75276e-012	-1.24334e-012	-1.09739e-012	-9.75449e-013	-6.35562e-013	-4.89567e-013	-3.43521e-013	-2.73968e-014	1.18758e-013	2.64964e-013	4.11222e-013	7.03889e-013	8.50276e-013	9.96713e-013	1.31327e-012	1.45982e-012	1.63e-012	1.75306e-012	
FineR164	-2.16579e-012	-2.02018e-012	-1.87453e-012	-1.55882e-012	-1.24334e-012	-1.12137e-012	-8.05425e-013	-6.59448e-013	-4.89567e-013	-1.735e-013	-5.11599e-014	1.18758e-013	2.4127e-013	5.57626e-013	7.27581e-013	8.73947e-013	1.19043e-012	1.3369e-012	1.48343e-012	1.63e-012	1.94672e-012	
FineR165	-2.16579e-012	-2.02018e-012	-1.87453e-012	-1.55882e-012	-1.41305e-012	-9.27473e-013	-7.81567e-013	-6.3561e-013	-5.13419e-013	-1.97297e-013	-5.11599e-014	9.50293e-014	4.11328e-013	5.57626e-013	7.27581e-013	8.73947e-013	1.16691e-012	1.3369e-012	1.48343e-012	1.77669e-012	1.94672e-012	
FineR166	-2.166e-012	-1.99621e-012	-1.68058e-012	-1.55882e-012	-1.41305e-012	-1.09723e-012	-7.81567e-013	-6.3561e-013	-3.19566e-013	-1.735e-013	-2.73825e-014	9.50293e-014	4.35065e-013	5.57626e-013	7.27672e-013	1.04413e-012	1.19057e-012	1.33706e-012	1.67711e-012	1.80029e-012	1.92336e-012	
FineR167	-2.166e-012	-2.02038e-012	-1.68058e-012	-1.53488e-012	-1.26708e-012	-9.27473e-013	-9.27473e-013	-4.89452e-013	-3.19566e-013	-1.735e-013	-2.73825e-014	2.88839e-013	4.35065e-013	5.81343e-013	8.97742e-013	1.04413e-012	1.19057e-012	1.33706e-012	1.65369e-012	1.80029e-012	1.94694e-012	
FineR168	-2.166e-012	-1.82639e-012	-1.70469e-012	-1.38894e-012	-1.24316e-012	-1.09732e-012	-9.27473e-013	-6.59313e-013	-3.1958e-013	-1.735e-013	1.42664e-013	2.88839e-013	4.35065e-013	5.81343e-013	8.97742e-013	1.04413e-012	1.19057e-012	1.50714e-012	1.65369e-012	1.80029e-012	1.94694e-012	
FineR169	-2.14157e-012	-1.85037e-012	-1.70469e-012	-1.36488e-012	-1.24316e-012	-1.09732e-012	-9.51351e-013	-6.11544e-013	-4.89418e-013	-3.45917e-015	1.18915e-013	2.88839e-013	4.35065e-013	7.51407e-013	8.97742e-013	1.04413e-012	1.36065e-012	1.50714e-012	1.65369e-012	1.80029e-012	2.14037e-012	
FineR170	-2.14157e-012	-1.99599e-012	-1.70469e-012	-1.38894e-012	-1.24316e-012	-9.2729e-013	-7.81396e-013	-6.3545e-013	-4.65581e-013	-3.45917e-015	-2.72566e-014	2.65125e-013	4.35134e-013	7.27781e-013	9.21439e-013	1.2142e-012	1.3843e-012	1.53078e-012	1.65369e-012	1.97038e-012	2.11704e-012	
MinCout:	-3.45917e-015	FineR:	169	FineC:	119

