	CoarseC0	CoarseC10	CoarseC20	CoarseC30	CoarseC40	CoarseC50	CoarseC60	CoarseC70	CoarseC80	CoarseC90	CoarseC100	CoarseC110	CoarseC120	CoarseC130	CoarseC140	CoarseC150	CoarseC160	CoarseC170	CoarseC180	CoarseC190	CoarseC200	CoarseC210	CoarseC220	CoarseC230	CoarseC240	CoarseC250	
CoarseR0	-1.06148e-009	-1.01894e-009	-9.74967e-010	-9.37042e-010	-9.04801e-010	-8.77164e-010	-8.53522e-010	-8.33147e-010	-8.15281e-010	-7.99763e-010	-7.86134e-010	-7.74238e-010	-7.63725e-010	-7.54458e-010	-7.46213e-010	-7.38951e-010	-7.32478e-010	-7.26803e-010	-7.21954e-010	-7.17496e-010	-7.13669e-010	-7.10567e-010	-7.0773e-010	-7.05253e-010	-7.03375e-010	-7.01725e-010	
CoarseR10	-8.01213e-010	-7.54532e-010	-7.13817e-010	-6.78435e-010	-6.4841e-010	-6.22826e-010	-6.00877e-010	-5.814e-010	-5.6484e-010	-5.49896e-010	-5.37132e-010	-5.25657e-010	-5.15988e-010	-5.06993e-010	-4.99397e-010	-4.92676e-010	-4.86863e-010	-4.81942e-010	-4.77871e-010	-4.74166e-010	-4.71267e-010	-4.68627e-010	-4.66687e-010	-4.65144e-010	-4.63753e-010	-4.63011e-010	
CoarseR20	-6.35464e-010	-5.86745e-010	-5.47664e-010	-5.1443e-010	-4.86237e-010	-4.62049e-010	-4.41166e-010	-4.22898e-010	-4.06933e-010	-3.93144e-010	-3.81027e-010	-3.70352e-010	-3.61399e-010	-3.53249e-010	-3.46338e-010	-3.40345e-010	-3.35383e-010	-3.31039e-010	-3.27279e-010	-3.24276e-010	-3.21874e-010	-3.19869e-010	-3.18486e-010	-3.17569e-010	-3.16935e-010	-3.16748e-010	
CoarseR30	-5.16508e-010	-4.69223e-010	-4.31524e-010	-4.00031e-010	-3.72948e-010	-3.49922e-010	-3.29916e-010	-3.12416e-010	-2.97504e-010	-2.84464e-010	-2.73247e-010	-2.63431e-010	-2.54881e-010	-2.47425e-010	-2.41133e-010	-2.35732e-010	-2.31193e-010	-2.27421e-010	-2.24233e-010	-2.21943e-010	-2.2007e-010	-2.18764e-010	-2.18239e-010	-2.17662e-010	-2.17832e-010	-2.18623e-010	
CoarseR40	-4.28123e-010	-3.81656e-010	-3.45463e-010	-3.15006e-010	-2.89175e-010	-2.67019e-010	-2.47836e-010	-2.31345e-010	-2.17005e-010	-2.04706e-010	-1.94035e-010	-1.84728e-010	-1.76758e-010	-1.6997e-010	-1.64205e-010	-1.59493e-010	-1.55502e-010	-1.52223e-010	-1.49832e-010	-1.48052e-010	-1.47017e-010	-1.46393e-010	-1.46327e-010	-1.47025e-010	-1.48211e-010	-1.49754e-010	
CoarseR50	-3.59475e-010	-3.13595e-010	-2.78433e-010	-2.4926e-010	-2.242e-010	-2.02974e-010	-1.84478e-010	-1.68691e-010	-1.55021e-010	-1.4321e-010	-1.33025e-010	-1.2434e-010	-1.17025e-010	-1.10709e-010	-1.05428e-010	-1.01393e-010	-9.78707e-011	-9.54002e-011	-9.3843e-011	-9.28766e-011	-9.22926e-011	-9.28166e-011	-9.37169e-011	-9.53949e-011	-9.76428e-011	-1.00485e-010	
CoarseR60	-3.04129e-010	-2.58963e-010	-2.2487e-010	-1.96374e-010	-1.72157e-010	-1.51723e-010	-1.33996e-010	-1.18613e-010	-1.05737e-010	-9.43549e-011	-8.47751e-011	-7.65569e-011	-6.97018e-011	-6.40284e-011	-5.93707e-011	-5.57875e-011	-5.3079e-011	-5.12636e-011	-5.03674e-011	-5.01985e-011	-5.05723e-011	-5.20777e-011	-5.4128e-011	-5.70924e-011	-6.09617e-011	-6.55136e-011	
CoarseR70	-2.57939e-010	-2.13774e-010	-1.80628e-010	-1.52892e-010	-1.29392e-010	-1.09521e-010	-9.23623e-011	-7.7544e-011	-6.50733e-011	-5.42822e-011	-4.51653e-011	-3.73764e-011	-3.12907e-011	-2.59185e-011	-2.18992e-011	-1.91177e-011	-1.70625e-011	-1.608e-011	-1.58209e-011	-1.66379e-011	-1.81764e-011	-2.08115e-011	-2.45362e-011	-2.92486e-011	-3.59791e-011	-4.39813e-011	
CoarseR80	-2.18903e-010	-1.75961e-010	-1.43589e-010	-1.16711e-010	-9.35858e-011	-7.42556e-011	-5.76736e-011	-4.32541e-011	-3.11636e-011	-2.08016e-011	-1.2263e-011	-4.93137e-012	7.05686e-013	5.46167e-012	8.82385e-012	1.11143e-011	1.23613e-011	1.26878e-011	1.17525e-011	9.76249e-012	6.88567e-012	2.58135e-012	-3.56373e-012	-1.20502e-011	-2.02099e-011	-2.8342e-011	
CoarseR90	-1.8577e-010	-1.43736e-010	-1.11998e-010	-8.54663e-011	-6.30399e-011	-4.42399e-011	-2.79969e-011	-1.3982e-011	-2.30365e-012	7.63383e-012	1.57414e-011	2.24672e-011	2.78249e-011	3.1752e-011	3.46242e-011	3.64394e-011	3.66451e-011	3.59617e-011	3.40273e-011	3.08665e-011	2.61533e-011	1.78823e-011	9.26041e-012	1.01373e-012	-7.67885e-012	-1.5736e-011	
CoarseR100	-1.56544e-010	-1.15327e-010	-8.4286e-011	-5.82489e-011	-3.61649e-011	-1.75474e-011	-1.69743e-012	1.17623e-011	2.30382e-011	3.25499e-011	4.03825e-011	4.6642e-011	5.11504e-011	5.47845e-011	5.71641e-011	5.77681e-011	5.72862e-011	5.53829e-011	5.22732e-011	4.64524e-011	3.78257e-011	2.9047e-011	2.00579e-011	1.14491e-011	3.4766e-012	-3.96695e-012	
CoarseR110	-1.31364e-010	-9.06174e-011	-6.00729e-011	-3.45201e-011	-1.2932e-011	5.33611e-012	2.08175e-011	3.40578e-011	4.50456e-011	5.41487e-011	6.15303e-011	6.73054e-011	7.15109e-011	7.44613e-011	7.59887e-011	7.60651e-011	7.43671e-011	7.1085e-011	6.50546e-011	5.62441e-011	4.75331e-011	3.81514e-011	2.96227e-011	2.12283e-011	1.37195e-011	6.70623e-012	
CoarseR120	-1.08813e-010	-6.87184e-011	-3.85369e-011	-1.3337e-011	8.07927e-012	2.57663e-011	4.1216e-011	5.40385e-011	6.46252e-011	7.36148e-011	8.05044e-011	8.5626e-011	8.93433e-011	9.17703e-011	9.24028e-011	9.16271e-011	8.86885e-011	8.2809e-011	7.38665e-011	6.47063e-011	5.538e-011	4.6396e-011	3.81636e-011	3.05962e-011	2.31956e-011	1.65135e-011	
CoarseR130	-8.86866e-011	-4.92199e-011	-1.91956e-011	5.5109e-012	2.65587e-011	4.44564e-011	5.9495e-011	7.20613e-011	8.21994e-011	9.07241e-011	9.74911e-011	1.0228e-010	1.05481e-010	1.07016e-010	1.06931e-010	1.04715e-010	9.99979e-011	9.06928e-011	8.13766e-011	7.17727e-011	6.29026e-011	5.44245e-011	4.64738e-011	3.90687e-011	3.22006e-011	2.58778e-011	
CoarseR140	-7.07627e-011	-3.15123e-011	-1.83391e-012	2.27632e-011	4.34915e-011	6.09595e-011	7.57846e-011	8.80852e-011	9.81218e-011	1.06365e-010	1.12643e-010	1.16893e-010	1.19767e-010	1.20562e-010	1.19409e-010	1.15815e-010	1.07133e-010	9.78241e-011	8.79332e-011	7.88167e-011	7.02817e-011	6.21126e-011	5.45243e-011	4.74761e-011	4.08029e-011	3.46544e-011	
CoarseR150	-5.42106e-011	-1.56405e-011	1.39122e-011	3.81972e-011	5.88528e-011	7.61414e-011	9.06918e-011	1.02962e-010	1.12694e-010	1.20606e-010	1.26564e-010	1.30478e-010	1.32429e-010	1.32519e-010	1.3027e-010	1.22982e-010	1.14031e-010	1.03812e-010	9.44349e-011	8.54542e-011	7.72518e-011	6.96261e-011	6.22266e-011	5.5385e-011	4.9107e-011	4.30197e-011	
CoarseR160	-3.97104e-011	-9.98405e-013	2.80541e-011	5.23242e-011	7.29757e-011	8.98717e-011	1.04353e-010	1.16325e-010	1.26135e-010	1.33551e-010	1.3897e-010	1.42733e-010	1.44138e-010	1.42929e-010	1.3852e-010	1.29348e-010	1.19632e-010	1.0978e-010	1.00734e-010	9.21418e-011	8.41287e-011	7.6724e-011	6.95239e-011	6.29061e-011	5.68694e-011	5.10221e-011	
CoarseR170	-2.63153e-011	1.22913e-011	4.12298e-011	6.52864e-011	8.55819e-011	1.02619e-010	1.16864e-010	1.28672e-010	1.38197e-010	1.45472e-010	1.50555e-010	1.53565e-010	1.5443e-010	1.52306e-010	1.44703e-010	1.35419e-010	1.25274e-010	1.15574e-010	1.06928e-010	9.84965e-011	9.08982e-011	8.355e-011	7.67754e-011	7.03866e-011	6.44244e-011	5.88584e-011	
CoarseR180	-1.39596e-011	2.44306e-011	5.33575e-011	7.7273e-011	9.75364e-011	1.14492e-010	1.28658e-010	1.40206e-010	1.49184e-010	1.56327e-010	1.61044e-010	1.63528e-010	1.63623e-010	1.59708e-010	1.50672e-010	1.40476e-010	1.30697e-010	1.21588e-010	1.12939e-010	1.04965e-010	9.74083e-011	9.02481e-011	8.37414e-011	7.76144e-011	7.17399e-011	6.62331e-011	
CoarseR190	-2.40725e-012	3.54545e-011	6.42351e-011	8.83488e-011	1.08419e-010	1.25436e-010	1.39349e-010	1.50793e-010	1.59821e-010	1.666e-010	1.70966e-010	1.73097e-010	1.72123e-010	1.65444e-010	1.55947e-010	1.45851e-010	1.36063e-010	1.27177e-010	1.18951e-010	1.1101e-010	1.03705e-010	9.70413e-011	9.05819e-011	8.43745e-011	7.87472e-011	7.33799e-011	
CoarseR200	7.70287e-012	4.55128e-011	7.41911e-011	9.82346e-011	1.18462e-010	1.35228e-010	1.49204e-010	1.60564e-010	1.69468e-010	1.75902e-010	1.80104e-010	1.81466e-010	1.79635e-010	1.70837e-010	1.60791e-010	1.50915e-010	1.41558e-010	1.32708e-010	1.2473e-010	1.17221e-010	1.09993e-010	1.03409e-010	9.70429e-011	9.11117e-011	8.56031e-011	8.03352e-011	
CoarseR210	1.69743e-011	5.50237e-011	8.37617e-011	1.07772e-010	1.27781e-010	1.44484e-010	1.58359e-010	1.69731e-010	1.78343e-010	1.84809e-010	1.88438e-010	1.89454e-010	1.8508e-010	1.76046e-010	1.65587e-010	1.5589e-010	1.46983e-010	1.38385e-010	1.30499e-010	1.23083e-010	1.16117e-010	1.09629e-010	1.03377e-010	9.77143e-011	9.21369e-011	8.69733e-011	
CoarseR220	2.60388e-011	6.37642e-011	9.24664e-011	1.1632e-010	1.36645e-010	1.53242e-010	1.6706e-010	1.783e-010	1.86762e-010	1.92894e-010	1.9619e-010	1.96651e-010	1.90347e-010	1.8071e-010	1.70662e-010	1.6125e-010	1.52177e-010	1.44031e-010	1.36012e-010	1.28876e-010	1.22214e-010	1.15829e-010	1.09667e-010	1.04153e-010	9.86811e-011	9.3624e-011	
CoarseR230	3.40247e-011	7.18342e-011	1.0056e-010	1.24598e-010	1.44457e-010	1.61226e-010	1.75101e-010	1.86402e-010	1.94722e-010	2.00465e-010	2.03603e-010	2.03193e-010	1.95484e-010	1.85434e-010	1.75471e-010	1.66305e-010	1.5767e-010	1.49425e-010	1.4167e-010	1.34647e-010	1.27911e-010	1.21779e-010	1.15963e-010	1.10177e-010	1.05222e-010	1.00118e-010	
CoarseR240	4.14001e-011	7.94713e-011	1.08005e-010	1.318e-010	1.52189e-010	1.68862e-010	1.8282e-010	1.94002e-010	2.02177e-010	2.07799e-010	2.10576e-010	2.08771e-010	2.00488e-010	1.90034e-010	1.80302e-010	1.71224e-010	1.62699e-010	1.54702e-010	1.47467e-010	1.40356e-010	1.33713e-010	1.27697e-010	1.21807e-010	1.16345e-010	1.11345e-010	1.06379e-010	
CoarseR250	4.82264e-011	8.61165e-011	1.1491e-010	1.39056e-010	1.59021e-010	1.75998e-010	1.89848e-010	2.00923e-010	2.09352e-010	2.14625e-010	2.17047e-010	2.13579e-010	2.05228e-010	1.94706e-010	1.85229e-010	1.76237e-010	1.67779e-010	1.60108e-010	1.52764e-010	1.4596e-010	1.39454e-010	1.33383e-010	1.27764e-010	1.22258e-010	1.17182e-010	1.1255e-010	
MinCout:	7.05686e-013	CoarseR:	80	CoarseC:	120

	CoarseC40	CoarseC41	CoarseC42	CoarseC43	CoarseC44	CoarseC45	CoarseC46	CoarseC47	CoarseC48	CoarseC49	CoarseC50	CoarseC51	CoarseC52	CoarseC53	CoarseC54	CoarseC55	CoarseC56	CoarseC57	CoarseC58	CoarseC59	CoarseC60	
CoarseR100	-3.61892e-011	-3.43346e-011	-3.2503e-011	-3.03617e-011	-2.83577e-011	-2.65463e-011	-2.47289e-011	-2.28666e-011	-2.10934e-011	-1.94172e-011	-1.77391e-011	-1.59139e-011	-1.42074e-011	-1.25434e-011	-1.10727e-011	-9.38423e-012	-7.73856e-012	-6.38361e-012	-4.88219e-012	-3.35294e-012	-1.86854e-012	
CoarseR101	-3.38309e-011	-3.18338e-011	-3.01699e-011	-2.80285e-011	-2.60247e-011	-2.43577e-011	-2.23732e-011	-2.0702e-011	-1.87384e-011	-1.70375e-011	-1.53828e-011	-1.35339e-011	-1.17308e-011	-1.02148e-011	-8.74234e-012	-7.05403e-012	-5.53411e-012	-4.03151e-012	-2.53042e-012	-1.04536e-012	4.82032e-013	
CoarseR102	-3.14593e-011	-2.94626e-011	-2.76344e-011	-2.54629e-011	-2.38227e-011	-2.18201e-011	-1.98361e-011	-1.81653e-011	-1.6202e-011	-1.45266e-011	-1.28721e-011	-1.11926e-011	-9.5336e-012	-7.84988e-012	-6.1865e-012	-4.69105e-012	-3.19207e-012	-1.50004e-012	1.01451e-015	1.33641e-012	2.84484e-012	
CoarseR103	-2.90991e-011	-2.7078e-011	-2.52471e-011	-2.3106e-011	-2.1271e-011	-1.9437e-011	-1.74772e-011	-1.57831e-011	-1.38202e-011	-1.21452e-011	-1.04668e-011	-8.81086e-012	-7.1764e-012	-5.49288e-012	-3.82983e-012	-2.31247e-012	-8.13601e-013	6.62958e-013	2.18584e-012	3.69139e-012	5.04959e-012	
CoarseR104	-2.66977e-011	-2.48721e-011	-2.28741e-011	-2.08985e-011	-1.88983e-011	-1.72067e-011	-1.50814e-011	-1.358e-011	-1.17863e-011	-9.94291e-012	-8.26634e-012	-6.44131e-012	-4.75962e-012	-3.29284e-012	-1.63037e-012	5.68996e-014	1.57558e-012	3.05362e-012	4.57612e-012	5.91e-012	7.58556e-012	
CoarseR105	-2.41417e-011	-2.23161e-011	-2.04878e-011	-1.8488e-011	-1.65123e-011	-1.48471e-011	-1.28646e-011	-1.11951e-011	-9.20787e-012	-7.53396e-012	-5.85798e-012	-4.20321e-012	-2.5461e-012	-9.09834e-013	7.75072e-013	2.26887e-012	3.95774e-012	5.43341e-012	6.9575e-012	8.29096e-012	9.81668e-012	
CoarseR106	-2.20784e-011	-2.01107e-011	-1.80882e-011	-1.60887e-011	-1.42813e-011	-1.24482e-011	-1.04661e-011	-8.79685e-012	-6.78614e-012	-5.30564e-012	-3.46071e-012	-1.80637e-012	-1.49666e-013	1.50939e-012	3.00071e-012	4.6872e-012	6.16018e-012	7.68159e-012	9.20324e-012	1.05136e-011	1.22105e-011	
CoarseR107	-1.96905e-011	-1.76704e-011	-1.58451e-011	-1.36759e-011	-1.20634e-011	-1.02048e-011	-8.22414e-012	-6.69914e-012	-4.56871e-012	-3.06469e-012	-1.21963e-012	4.34043e-013	2.0901e-012	3.74892e-012	5.40986e-012	6.75576e-012	8.42103e-012	9.8959e-012	1.12475e-011	1.29208e-011	1.42539e-011	
CoarseR108	-1.74068e-011	-1.54141e-011	-1.35854e-011	-1.1612e-011	-9.61195e-012	-7.94818e-012	-5.96732e-012	-4.29909e-012	-2.31359e-012	-6.40776e-013	1.01022e-012	2.66361e-012	4.3194e-012	6.17113e-012	7.66099e-012	9.15445e-012	1.06485e-011	1.21685e-011	1.3668e-011	1.49981e-011	1.65018e-011	
CoarseR109	-1.51619e-011	-1.33626e-011	-1.1341e-011	-9.39408e-012	-7.3931e-012	-5.72955e-012	-3.72421e-012	-2.05634e-012	-9.53305e-014	1.40781e-012	3.10596e-012	4.73507e-012	6.41396e-012	8.04768e-012	9.73104e-012	1.12457e-011	1.28881e-011	1.43836e-011	1.57125e-011	1.70645e-011	1.87171e-011	
CoarseR110	-1.29049e-011	-1.10802e-011	-9.08449e-012	-7.0866e-012	-5.13726e-012	-3.61758e-012	-1.46906e-012	2.00207e-013	1.9898e-012	3.66189e-012	5.33611e-012	7.15914e-012	8.81376e-012	1.03241e-011	1.18125e-011	1.34739e-011	1.49684e-011	1.66346e-011	1.78355e-011	1.94849e-011	2.07947e-011	
CoarseR111	-1.08295e-011	-8.81053e-012	-7.00967e-012	-5.01216e-012	-3.03783e-012	-1.35024e-012	6.04144e-013	2.27122e-012	4.25554e-012	5.73379e-012	7.60208e-012	9.27768e-012	1.09086e-011	1.25889e-011	1.42475e-011	1.55902e-011	1.70606e-011	1.87261e-011	2.00538e-011	2.15752e-011	2.29044e-011	
CoarseR112	-8.54827e-012	-6.74999e-012	-4.72895e-012	-2.73181e-012	-9.26306e-013	7.60533e-013	2.88338e-012	4.38077e-012	6.36441e-012	8.01187e-012	9.87997e-012	1.15079e-011	1.30154e-011	1.46711e-011	1.63291e-011	1.7671e-011	1.9186e-011	2.08295e-011	2.23278e-011	2.36774e-011	2.51768e-011	
CoarseR113	-6.44877e-012	-4.62874e-012	-2.80244e-012	-8.0589e-013	1.16776e-012	3.0011e-012	4.9793e-012	6.64534e-012	8.45891e-012	1.01293e-011	1.18018e-011	1.34519e-011	1.51065e-011	1.67616e-011	1.82725e-011	1.99561e-011	2.1275e-011	2.27467e-011	2.42651e-011	2.55932e-011	2.72442e-011	
CoarseR114	-4.34236e-012	-2.51853e-012	-5.24681e-013	1.47145e-012	3.44485e-012	5.10585e-012	7.08355e-012	8.57975e-012	1.05639e-011	1.2234e-011	1.38814e-011	1.57033e-011	1.72097e-011	1.88641e-011	2.05453e-011	2.18641e-011	2.33542e-011	2.50418e-011	2.62159e-011	2.78635e-011	2.91934e-011	
CoarseR115	-2.25139e-012	-4.01372e-013	1.5929e-012	3.42023e-012	5.3921e-012	7.05243e-012	9.03097e-012	1.08686e-011	1.25085e-011	1.43505e-011	1.60222e-011	1.76711e-011	1.93252e-011	2.08084e-011	2.24647e-011	2.39764e-011	2.56614e-011	2.69599e-011	2.84775e-011	2.98045e-011	3.12824e-011	
CoarseR116	-1.17969e-013	1.89969e-012	3.52581e-012	5.5213e-012	7.51908e-012	9.35174e-012	1.13281e-011	1.28231e-011	1.48065e-011	1.63056e-011	1.79514e-011	1.95997e-011	2.12755e-011	2.29286e-011	2.44377e-011	2.60988e-011	2.75876e-011	2.9082e-011	3.04264e-011	3.19252e-011	3.3422e-011	
CoarseR117	1.84761e-012	3.83905e-012	5.63785e-012	7.63309e-012	9.46165e-012	1.1121e-011	1.30968e-011	1.49339e-011	1.65743e-011	1.8416e-011	2.00614e-011	2.17345e-011	2.3214e-011	2.48665e-011	2.65464e-011	2.8036e-011	2.9524e-011	3.1186e-011	3.23618e-011	3.36632e-011	3.53562e-011	
CoarseR118	4.0034e-012	5.79884e-012	7.64437e-012	9.78711e-012	1.16149e-011	1.32735e-011	1.52485e-011	1.69118e-011	1.88947e-011	2.03927e-011	2.20372e-011	2.38831e-011	2.53617e-011	2.70134e-011	2.86676e-011	3.01568e-011	3.16689e-011	3.29647e-011	3.44807e-011	3.58253e-011	3.7498e-011	
CoarseR119	5.93637e-012	7.75729e-012	9.60735e-012	1.1549e-011	1.35722e-011	1.52303e-011	1.72047e-011	1.88714e-011	2.08538e-011	2.23511e-011	2.39948e-011	2.5641e-011	2.73153e-011	2.87953e-011	3.04529e-011	3.19625e-011	3.34489e-011	3.5114e-011	3.6456e-011	3.77566e-011	3.92751e-011	
CoarseR120	7.91096e-012	9.92713e-012	1.17242e-011	1.37176e-011	1.55198e-011	1.71775e-011	1.91514e-011	2.0644e-011	2.26229e-011	2.41195e-011	2.57885e-011	2.76078e-011	2.92815e-011	3.07606e-011	3.24177e-011	3.39013e-011	3.53917e-011	3.6878e-011	3.83929e-011	3.97164e-011	4.11915e-011	
MinCout:	1.01451e-015	CoarseR:	102	CoarseC:	58

	FineC0	FineC10	FineC20	FineC30	FineC40	FineC50	FineC60	FineC70	FineC80	FineC90	FineC100	FineC110	FineC120	FineC130	FineC140	FineC150	FineC160	FineC170	FineC180	FineC190	FineC200	FineC210	FineC220	FineC230	FineC240	FineC250	
FineR0	-1.38711e-010	-1.11494e-010	-9.45135e-011	-8.23465e-011	-7.2734e-011	-6.54814e-011	-5.93706e-011	-5.44925e-011	-5.04348e-011	-4.70779e-011	-4.40263e-011	-4.1592e-011	-3.93237e-011	-3.71759e-011	-3.54813e-011	-3.39571e-011	-3.24541e-011	-3.12192e-011	-3.0172e-011	-2.89411e-011	-2.81871e-011	-2.72465e-011	-2.64949e-011	-2.5746e-011	-2.512e-011	-2.43499e-011	
FineR10	-1.21894e-010	-9.46107e-011	-7.80038e-011	-6.58083e-011	-5.62362e-011	-4.89341e-011	-4.31608e-011	-3.81452e-011	-3.42095e-011	-3.0717e-011	-2.78372e-011	-2.52399e-011	-2.29495e-011	-2.09722e-011	-1.9327e-011	-1.78045e-011	-1.64252e-011	-1.52159e-011	-1.39808e-011	-1.3085e-011	-1.21669e-011	-1.1227e-011	-1.04998e-011	-9.73043e-012	-9.12654e-012	-8.33354e-012	
FineR20	-1.14375e-010	-8.72372e-011	-7.04392e-011	-5.84504e-011	-4.90182e-011	-4.17241e-011	-3.57894e-011	-3.09471e-011	-2.68479e-011	-2.35008e-011	-2.04571e-011	-1.78855e-011	-1.57693e-011	-1.38161e-011	-1.21515e-011	-1.04592e-011	-9.08351e-012	-7.85222e-012	-6.64332e-012	-5.74925e-012	-4.83239e-012	-3.91423e-012	-3.14502e-012	-2.54435e-012	-1.77341e-012	-1.34266e-012	
FineR30	-1.10209e-010	-8.30815e-011	-6.64229e-011	-5.42445e-011	-4.48147e-011	-3.75558e-011	-3.15956e-011	-2.67606e-011	-2.26638e-011	-1.93427e-011	-1.64692e-011	-1.38767e-011	-1.15914e-011	-9.61723e-012	-7.97653e-012	-6.43371e-012	-4.911e-012	-3.85123e-012	-2.62056e-012	-1.55701e-012	-6.63078e-013	1.04568e-013	8.51584e-013	1.62329e-012	2.22202e-012	3.01442e-012	
FineR40	-1.07516e-010	-8.02298e-011	-6.37379e-011	-5.15596e-011	-4.21385e-011	-3.48531e-011	-2.89246e-011	-2.40872e-011	-2.01376e-011	-1.66771e-011	-1.36108e-011	-1.10198e-011	-8.92945e-012	-6.95623e-012	-5.29338e-012	-3.77489e-012	-2.25298e-012	-1.02468e-012	3.62684e-014	1.0991e-012	2.01445e-012	2.95289e-012	3.69946e-012	4.46854e-012	4.89726e-012	5.66828e-012	
FineR50	-1.05572e-010	-7.84548e-011	-6.18373e-011	-4.96617e-011	-4.0243e-011	-3.29561e-011	-2.71985e-011	-2.23383e-011	-1.80782e-011	-1.47371e-011	-1.16979e-011	-9.27723e-012	-7.16404e-012	-5.0454e-012	-3.21474e-012	-1.71936e-012	-4.925e-013	8.83341e-013	1.92158e-012	3.00464e-012	3.91952e-012	4.83607e-012	5.41248e-012	6.20308e-012	6.97266e-012	7.40211e-012	
FineR60	-1.03879e-010	-7.69342e-011	-6.03127e-011	-4.82811e-011	-3.8697e-011	-3.15816e-011	-2.56572e-011	-2.08235e-011	-1.69013e-011	-1.32243e-011	-1.0355e-011	-7.78936e-012	-5.65331e-012	-3.70492e-012	-1.85163e-012	-3.34544e-013	1.01642e-012	2.22143e-012	3.28139e-012	4.51291e-012	5.42753e-012	6.17204e-012	7.11113e-012	7.68865e-012	8.30814e-012	8.93023e-012	
FineR70	-1.02901e-010	-7.59527e-011	-5.91449e-011	-4.71115e-011	-3.77263e-011	-3.04474e-011	-2.45239e-011	-1.96911e-011	-1.57433e-011	-1.22371e-011	-9.19977e-012	-6.80465e-012	-4.52355e-012	-2.55229e-012	-6.99431e-013	8.17254e-013	2.16684e-012	3.34994e-012	4.43178e-012	5.4923e-012	6.38422e-012	7.32203e-012	8.06802e-012	8.83637e-012	9.43567e-012	1.00556e-011	
FineR80	-1.02113e-010	-7.50091e-011	-5.83293e-011	-4.61645e-011	-3.69498e-011	-2.95033e-011	-2.37219e-011	-1.88931e-011	-1.48035e-011	-1.14656e-011	-8.26016e-012	-5.86492e-012	-3.58429e-012	-1.58983e-012	6.95623e-014	1.56296e-012	2.93517e-012	4.31002e-012	5.36929e-012	6.2593e-012	7.19556e-012	8.08919e-012	8.85638e-012	9.62442e-012	1.03723e-011	1.08221e-011	
FineR90	-1.01482e-010	-7.42175e-011	-5.77461e-011	-4.55823e-011	-3.61688e-011	-2.88934e-011	-2.29726e-011	-1.82842e-011	-1.40287e-011	-1.06917e-011	-7.65577e-012	-5.0926e-012	-2.98245e-012	-1.01201e-012	6.46945e-013	2.13989e-012	3.68238e-012	4.90912e-012	5.96797e-012	7.02872e-012	7.92079e-012	8.66452e-012	9.60317e-012	1.03712e-011	1.09692e-011	1.15908e-011	
FineR100	-1.00928e-010	-7.38317e-011	-5.71913e-011	-4.49948e-011	-3.5583e-011	-2.84776e-011	-2.24174e-011	-1.75348e-011	-1.34471e-011	-1.01109e-011	-7.07552e-012	-4.51292e-012	-2.40319e-012	-4.33193e-013	1.2254e-012	2.74109e-012	4.26022e-012	5.48676e-012	6.52266e-012	7.60585e-012	8.51938e-012	9.26274e-012	1.01798e-011	1.09476e-011	1.15666e-011	1.2145e-011	
FineR110	-1.00364e-010	-7.33994e-011	-5.66312e-011	-4.46036e-011	-3.51928e-011	-2.77504e-011	-2.19983e-011	-1.69771e-011	-1.30579e-011	-9.57846e-012	-6.68775e-012	-4.12618e-012	-2.01651e-012	-2.34951e-014	1.80457e-012	3.46671e-012	4.66832e-012	5.87162e-012	6.92995e-012	8.16015e-012	9.05187e-012	9.98915e-012	1.05858e-011	1.13534e-011	1.1929e-011	1.25503e-011	
FineR120	-9.99238e-011	-7.28759e-011	-5.62035e-011	-4.4044e-011	-3.46068e-011	-2.75006e-011	-2.16091e-011	-1.67561e-011	-1.2502e-011	-9.19098e-012	-6.13157e-012	-3.56952e-012	-1.4363e-012	5.09376e-013	2.16763e-012	3.68303e-012	5.03127e-012	6.42827e-012	7.48584e-012	8.54687e-012	9.63026e-012	1.02033e-011	1.09486e-011	1.17162e-011	1.25069e-011	1.29561e-011	
FineR130	-9.95718e-011	-7.24752e-011	-5.58409e-011	-4.36532e-011	-3.42439e-011	-2.71376e-011	-2.12461e-011	-1.63676e-011	-1.22816e-011	-8.97151e-012	-5.93704e-012	-3.35138e-012	-1.04923e-012	8.96258e-013	2.72423e-012	4.23908e-012	5.61016e-012	6.81392e-012	7.85005e-012	8.90915e-012	9.84499e-012	1.07594e-011	1.15047e-011	1.21021e-011	1.28705e-011	1.34691e-011	
FineR140	-9.91994e-011	-7.20816e-011	-5.54487e-011	-4.32902e-011	-3.40228e-011	-2.6748e-011	-2.0857e-011	-1.60043e-011	-1.19182e-011	-8.58351e-012	-5.54929e-012	-2.96385e-012	-8.55182e-013	1.30683e-012	2.91792e-012	4.62592e-012	5.8038e-012	7.0297e-012	8.06465e-012	9.29457e-012	1.02087e-011	1.11231e-011	1.18897e-011	1.24658e-011	1.32565e-011	1.37056e-011	
FineR150	-9.88484e-011	-7.19187e-011	-5.52491e-011	-4.30917e-011	-3.36867e-011	-2.64111e-011	-2.06349e-011	-1.56138e-011	-1.16981e-011	-8.21908e-012	-5.35482e-012	-2.76967e-012	-4.91472e-013	1.4771e-012	3.13464e-012	4.81976e-012	6.16759e-012	7.39352e-012	8.59949e-012	9.51107e-012	1.04024e-011	1.13169e-011	1.20834e-011	1.28508e-011	1.34695e-011	1.40681e-011	
FineR160	-9.88017e-011	-7.15174e-011	-5.48859e-011	-4.28975e-011	-3.34891e-011	-2.61877e-011	-2.02973e-011	-1.54181e-011	-1.15028e-011	-8.02498e-012	-4.9662e-012	-2.57563e-012	-2.97439e-013	1.84077e-012	3.49835e-012	4.8428e-012	6.38399e-012	7.58664e-012	8.64433e-012	9.87405e-012	1.07869e-011	1.15081e-011	1.22759e-011	1.30433e-011	1.36619e-011	1.42619e-011	
FineR170	-9.84404e-011	-7.13542e-011	-5.4855e-011	-4.26989e-011	-3.32641e-011	-2.59907e-011	-2.01009e-011	-1.52492e-011	-1.11379e-011	-7.83e-012	-4.79636e-012	-2.21145e-012	-1.03327e-013	2.0349e-012	3.5219e-012	5.20629e-012	6.57734e-012	7.77984e-012	9.00841e-012	1.0067e-011	1.09797e-011	1.18724e-011	1.26388e-011	1.32372e-011	1.38334e-011	1.46246e-011	
FineR180	-9.82462e-011	-7.12832e-011	-5.46551e-011	-4.24677e-011	-3.30663e-011	-2.57937e-011	-1.99045e-011	-1.50534e-011	-1.09685e-011	-7.63493e-012	-4.57679e-012	-1.9927e-012	2.60376e-013	2.22888e-012	3.88577e-012	5.57026e-012	6.91837e-012	8.14395e-012	9.20156e-012	1.02383e-011	1.11511e-011	1.20652e-011	1.28315e-011	1.34284e-011	1.42188e-011	1.48171e-011	
FineR190	-9.80759e-011	-7.11128e-011	-5.44846e-011	-4.22971e-011	-3.28958e-011	-2.54575e-011	-1.98756e-011	-1.48559e-011	-1.09165e-011	-7.43908e-012	-4.40743e-012	-1.99215e-012	4.3072e-013	2.42263e-012	4.0796e-012	5.57052e-012	6.94103e-012	8.33639e-012	9.3718e-012	1.04302e-011	1.11726e-011	1.22581e-011	1.2854e-011	1.36211e-011	1.42171e-011	1.48378e-011	
FineR200	-9.80305e-011	-7.09423e-011	-5.4152e-011	-4.20983e-011	-3.28639e-011	-2.55929e-011	-1.95126e-011	-1.4855e-011	-1.05783e-011	-7.24532e-012	-4.23701e-012	-1.6526e-012	4.55028e-013	2.42304e-012	4.273e-012	5.76358e-012	7.1338e-012	8.33658e-012	9.56403e-012	1.04521e-011	1.13429e-011	1.22795e-011	1.30229e-011	1.37898e-011	1.44098e-011	1.5008e-011	
FineR210	-9.77029e-011	-7.07422e-011	-5.41155e-011	-4.19333e-011	-3.26933e-011	-2.523e-011	-1.9342e-011	-1.44903e-011	-1.05513e-011	-7.07416e-012	-4.04174e-012	-1.45789e-012	6.49261e-013	2.61686e-012	4.27339e-012	5.93391e-012	7.30468e-012	8.50688e-012	9.56418e-012	1.08165e-011	1.17061e-011	1.24711e-011	1.30455e-011	1.39842e-011	1.45801e-011	1.52007e-011	
FineR220	-9.76575e-011	-7.07406e-011	-5.4079e-011	-4.18993e-011	-3.24966e-011	-2.52263e-011	-1.93129e-011	-1.44638e-011	-1.03807e-011	-7.07405e-012	-4.01657e-012	-1.45727e-012	8.43274e-013	2.78716e-012	4.63696e-012	6.15081e-012	7.49749e-012	8.70015e-012	9.92751e-012	1.08384e-011	1.1729e-011	1.26427e-011	1.34087e-011	1.41545e-011	1.47745e-011	1.5371e-011	
FineR230	-9.74986e-011	-7.05788e-011	-5.37463e-011	-4.1757e-011	-3.24953e-011	-2.50302e-011	-1.92839e-011	-1.42942e-011	-1.01859e-011	-6.70975e-012	-3.84677e-012	-1.2632e-012	8.43843e-013	2.98102e-012	4.6374e-012	6.12773e-012	7.4978e-012	8.87052e-012	9.92772e-012	1.08385e-011	1.18992e-011	1.26642e-011	1.34087e-011	1.41755e-011	1.49432e-011	1.5543e-011	
FineR240	-9.74871e-011	-7.03699e-011	-5.37097e-011	-4.15595e-011	-3.21293e-011	-2.5029e-011	-1.91423e-011	-1.41236e-011	-1.01589e-011	-6.70831e-012	-3.82122e-012	-1.26254e-012	1.01416e-012	3.00496e-012	4.66092e-012	6.32124e-012	7.6912e-012	8.89299e-012	9.9499e-012	1.12019e-011	1.20696e-011	1.30061e-011	1.3579e-011	1.43458e-011	1.49432e-011	1.55638e-011	
FineR250	-9.74416e-011	-7.01697e-011	-5.35461e-011	-4.15254e-011	-3.21247e-011	-2.48595e-011	-1.89437e-011	-1.40956e-011	-1.01831e-011	-6.51375e-012	-3.50642e-012	-1.26183e-012	1.2081e-012	3.1515e-012	4.83092e-012	6.46822e-012	7.69068e-012	9.06311e-012	1.02902e-011	1.12009e-011	1.20913e-011	1.30048e-011	1.37706e-011	1.45162e-011	1.51361e-011	1.57324e-011	
MinCout:	-2.34951e-014	FineR:	110	FineC:	130

	FineC120	FineC121	FineC122	FineC123	FineC124	FineC125	FineC126	FineC127	FineC128	FineC129	FineC130	FineC131	FineC132	FineC133	FineC134	FineC135	FineC136	FineC137	FineC138	FineC139	FineC140	
FineR100	-2.40319e-012	-2.25735e-012	-2.11145e-012	-1.79582e-012	-1.64981e-012	-1.33412e-012	-1.18798e-012	-1.04178e-012	-7.25832e-013	-5.79535e-013	-4.33187e-013	-2.86882e-013	-1.40457e-013	2.94219e-014	1.52546e-013	4.92196e-013	6.38797e-013	7.85449e-013	9.0894e-013	1.22551e-012	1.24867e-012	
FineR101	-2.40346e-012	-2.23372e-012	-1.94177e-012	-1.79582e-012	-1.64981e-012	-1.31051e-012	-1.18794e-012	-1.04178e-012	-7.25832e-013	-5.79578e-013	-4.33256e-013	-2.86882e-013	-1.40457e-013	1.75764e-013	3.22297e-013	4.68881e-013	6.15516e-013	9.31971e-013	9.31971e-013	1.07871e-012	1.22551e-012	
FineR102	-2.23376e-012	-2.0879e-012	-1.94198e-012	-1.62631e-012	-1.48029e-012	-1.33421e-012	-1.16442e-012	-8.4856e-013	-7.0236e-013	-5.56109e-013	-4.09806e-013	-9.37182e-014	5.26923e-014	1.99154e-013	3.45667e-013	6.61988e-013	8.08609e-013	7.85279e-013	9.31971e-013	1.24849e-012	1.41856e-012	
FineR103	-2.21011e-012	-2.06427e-012	-1.74867e-012	-1.60271e-012	-1.45671e-012	-1.14093e-012	-1.01836e-012	-8.72175e-013	-7.25941e-013	-4.09912e-013	-2.63569e-013	-9.37407e-014	2.9269e-014	3.45531e-013	4.92084e-013	6.62043e-013	6.61988e-013	9.78371e-013	1.12505e-012	1.27178e-012	1.41856e-012	
FineR104	-2.37958e-012	-1.89457e-012	-1.74867e-012	-1.60271e-012	-1.287e-012	-1.14093e-012	-9.94823e-013	-8.4866e-013	-5.56203e-013	-3.86437e-013	-2.40114e-013	7.60138e-014	5.25786e-014	1.99029e-013	3.45531e-013	4.92084e-013	8.08465e-013	9.55126e-013	1.10184e-012	1.41839e-012	1.58849e-012	
FineR105	-2.18622e-012	-2.04042e-012	-1.9182e-012	-1.60258e-012	-1.287e-012	-1.31057e-012	-8.25097e-013	-6.78928e-013	-5.32708e-013	-2.16694e-013	-2.40169e-013	-7.03655e-014	5.25786e-014	3.68789e-013	5.15297e-013	6.61855e-013	8.08465e-013	1.14824e-012	1.29494e-012	1.44169e-012	1.58849e-012	
FineR106	-2.21013e-012	-1.89458e-012	-1.7487e-012	-1.60275e-012	-1.28703e-012	-1.11728e-012	-9.71214e-013	-8.48731e-013	-3.6297e-013	-3.86517e-013	-2.40169e-013	-7.03655e-014	2.45768e-013	3.92204e-013	5.38692e-013	6.8523e-013	1.0016e-012	1.14824e-012	1.29494e-012	1.27163e-012	1.61148e-012	
FineR107	-2.01674e-012	-1.87092e-012	-1.7487e-012	-1.40941e-012	-1.28703e-012	-1.1174e-012	-8.25143e-013	-6.78985e-013	-5.09196e-013	-3.86517e-013	-7.04423e-014	9.93834e-014	2.45768e-013	3.92204e-013	7.08457e-013	8.31701e-013	1.02495e-012	1.17158e-012	1.29469e-012	1.46473e-012	1.61148e-012	
FineR108	-2.01674e-012	-1.70121e-012	-1.55534e-012	-1.40941e-012	-1.26343e-012	-9.47668e-013	-8.01582e-013	-6.55444e-013	-3.63025e-013	-1.93258e-013	-4.69615e-014	9.93865e-014	4.1556e-013	5.62016e-013	7.08524e-013	8.55082e-013	1.17149e-012	1.14813e-012	1.31803e-012	1.46473e-012	1.75815e-012	
FineR109	-1.84704e-012	-1.70121e-012	-1.55534e-012	-1.40941e-012	-1.0937e-012	-9.47668e-013	-8.01582e-013	-4.85698e-013	-3.39504e-013	-1.93258e-013	1.22802e-013	2.69155e-013	4.1556e-013	5.62016e-013	7.08376e-013	8.54909e-013	1.00149e-012	1.17149e-012	1.48796e-012	1.63468e-012	1.78146e-012	
FineR110	-1.84723e-012	-1.87092e-012	-1.38576e-012	-1.23982e-012	-1.0701e-012	-7.78016e-013	-6.55476e-013	-4.85698e-013	-3.39504e-013	-2.35007e-014	1.2281e-013	1.22802e-013	4.38924e-013	7.55217e-013	7.31796e-013	8.78309e-013	1.02487e-012	1.34129e-012	1.48796e-012	1.63468e-012	1.78146e-012	
FineR111	-1.847e-012	-1.70119e-012	-1.55533e-012	-1.40941e-012	-9.24071e-013	-9.47677e-013	-8.01602e-013	-4.85716e-013	-1.93298e-013	-2.35064e-014	-2.35007e-014	2.92565e-013	4.38924e-013	5.85335e-013	7.31796e-013	1.0481e-012	1.19466e-012	1.34129e-012	1.48796e-012	1.82781e-012	1.97457e-012	
FineR112	-1.8233e-012	-1.70119e-012	-1.36193e-012	-1.23967e-012	-1.0937e-012	-9.24071e-013	-6.31847e-013	-4.85716e-013	-1.69772e-013	-1.93298e-013	1.46271e-013	2.69107e-013	4.62385e-013	7.55109e-013	9.01577e-013	1.0481e-012	1.19466e-012	1.36465e-012	1.6811e-012	1.82781e-012	1.80449e-012	
FineR113	-1.8233e-012	-1.50778e-012	-1.36193e-012	-1.21603e-012	-1.07007e-012	-7.54321e-013	-6.08261e-013	-4.62149e-013	-1.69766e-013	0	1.46271e-013	2.92594e-013	4.38967e-013	7.55187e-013	9.01668e-013	1.0482e-012	1.3646e-012	1.51124e-012	1.65793e-012	1.65793e-012	1.80467e-012	
FineR114	-1.65374e-012	-1.50793e-012	-1.36207e-012	-1.19238e-012	-9.24054e-013	-7.78011e-013	-6.08261e-013	-4.62149e-013	-1.4622e-013	0	1.46271e-013	4.62377e-013	6.32223e-013	7.55187e-013	9.25095e-013	1.21801e-012	1.38798e-012	1.34121e-012	1.51124e-012	1.82775e-012	1.9745e-012	
FineR115	-1.65374e-012	-1.50793e-012	-1.36207e-012	-1.02264e-012	-9.00422e-013	-7.30715e-013	-4.1492e-013	-2.92417e-013	-1.46234e-013	0	3.16083e-013	4.62426e-013	6.08819e-013	7.55264e-013	1.07158e-012	1.21813e-012	1.36474e-012	1.51118e-012	1.68123e-012	1.82794e-012	1.97471e-012	
FineR116	-1.63003e-012	-1.31449e-012	-1.16864e-012	-1.02274e-012	-9.00422e-013	-5.84629e-013	-4.14957e-013	-2.68845e-013	2.3552e-014	1.69792e-013	3.16083e-013	4.62426e-013	8.021e-013	9.48531e-013	1.09501e-012	1.24155e-012	1.38796e-012	1.53457e-012	1.68123e-012	1.82794e-012	1.97471e-012	
FineR117	-1.46043e-012	-1.31462e-012	-1.14497e-012	-1.0465e-012	-7.3073e-013	-5.61017e-013	-4.14957e-013	-1.22645e-013	4.7104e-014	1.93324e-013	3.39595e-013	6.55721e-013	8.021e-013	7.78628e-013	9.25079e-013	1.2414e-012	1.38796e-012	1.53457e-012	1.87444e-012	2.02114e-012	2.16789e-012	
FineR118	-1.60619e-012	-1.48415e-012	-1.33832e-012	-8.53064e-013	-7.07092e-013	-5.61069e-013	-2.45199e-013	-9.90677e-014	4.71153e-014	1.9335e-013	4.85935e-013	6.55795e-013	6.32297e-013	9.4854e-013	1.09501e-012	1.24153e-012	1.38811e-012	1.72798e-012	1.85126e-012	2.02135e-012	2.19122e-012	
FineR119	-1.60619e-012	-1.31452e-012	-1.14485e-012	-8.29407e-013	-8.53064e-013	-3.9128e-013	-2.45199e-013	-7.549e-014	2.16922e-013	3.63161e-013	3.39624e-013	6.55753e-013	8.25618e-013	9.4854e-013	1.09501e-012	1.24153e-012	1.55795e-012	1.70458e-012	1.87464e-012	1.85126e-012	2.16786e-012	
FineR120	-1.43644e-012	-1.31452e-012	-1.14485e-012	-8.29213e-013	-6.83287e-013	-5.37309e-013	-4.14897e-013	-9.9002e-014	2.16922e-013	1.93364e-013	3.39624e-013	6.55753e-013	8.02121e-013	9.4854e-013	1.26484e-012	1.43481e-012	1.58137e-012	1.72798e-012	1.87464e-012	2.02112e-012	2.19098e-012	
MinCout:	0	FineR:	113	FineC:	129

