	CoarseC0	CoarseC10	CoarseC20	CoarseC30	CoarseC40	CoarseC50	CoarseC60	CoarseC70	CoarseC80	CoarseC90	CoarseC100	CoarseC110	CoarseC120	CoarseC130	CoarseC140	CoarseC150	CoarseC160	CoarseC170	CoarseC180	CoarseC190	CoarseC200	CoarseC210	CoarseC220	CoarseC230	CoarseC240	CoarseC250	
CoarseR0	-1.06184e-009	-1.01782e-009	-9.74482e-010	-9.37255e-010	-9.05643e-010	-8.78612e-010	-8.55778e-010	-8.35941e-010	-8.18595e-010	-8.03462e-010	-7.90432e-010	-7.78844e-010	-7.68477e-010	-7.5972e-010	-7.51787e-010	-7.44865e-010	-7.3865e-010	-7.33308e-010	-7.28698e-010	-7.24525e-010	-7.20855e-010	-7.17721e-010	-7.15083e-010	-7.12739e-010	-7.10926e-010	-7.09449e-010	
CoarseR10	-7.99909e-010	-7.52359e-010	-7.12191e-010	-6.77383e-010	-6.48227e-010	-6.23277e-010	-6.01646e-010	-5.82875e-010	-5.6663e-010	-5.52371e-010	-5.39951e-010	-5.28981e-010	-5.19237e-010	-5.10977e-010	-5.03435e-010	-4.97242e-010	-4.91496e-010	-4.86776e-010	-4.82849e-010	-4.79492e-010	-4.76737e-010	-4.74356e-010	-4.72541e-010	-4.71115e-010	-4.70076e-010	-4.69439e-010	
CoarseR20	-6.32943e-010	-5.84484e-010	-5.46029e-010	-5.13495e-010	-4.85922e-010	-4.62228e-010	-4.41763e-010	-4.24133e-010	-4.08648e-010	-3.95097e-010	-3.83502e-010	-3.73265e-010	-3.64235e-010	-3.56766e-010	-3.50224e-010	-3.44445e-010	-3.39696e-010	-3.35488e-010	-3.32081e-010	-3.29385e-010	-3.26905e-010	-3.25377e-010	-3.23952e-010	-3.23303e-010	-3.22899e-010	-3.22807e-010	
CoarseR30	-5.12805e-010	-4.65807e-010	-4.28853e-010	-3.97908e-010	-3.71669e-010	-3.49011e-010	-3.29615e-010	-3.12747e-010	-2.98122e-010	-2.85609e-010	-2.7459e-010	-2.65039e-010	-2.56775e-010	-2.49905e-010	-2.43843e-010	-2.38808e-010	-2.34466e-010	-2.30866e-010	-2.27978e-010	-2.25957e-010	-2.2435e-010	-2.23188e-010	-2.22744e-010	-2.22729e-010	-2.23019e-010	-2.23697e-010	
CoarseR40	-4.24259e-010	-3.77985e-010	-3.42643e-010	-3.12853e-010	-2.8777e-010	-2.66056e-010	-2.47558e-010	-2.31404e-010	-2.1768e-010	-2.05709e-010	-1.95257e-010	-1.86384e-010	-1.78698e-010	-1.72473e-010	-1.6693e-010	-1.6242e-010	-1.58763e-010	-1.5582e-010	-1.53741e-010	-1.5223e-010	-1.51133e-010	-1.51082e-010	-1.51112e-010	-1.52016e-010	-1.53408e-010	-1.55193e-010	
CoarseR50	-3.55948e-010	-3.10333e-010	-2.76023e-010	-2.47337e-010	-2.22988e-010	-2.02037e-010	-1.84257e-010	-1.68893e-010	-1.55673e-010	-1.44218e-010	-1.34698e-010	-1.26147e-010	-1.19077e-010	-1.13335e-010	-1.08427e-010	-1.04385e-010	-1.01372e-010	-9.9389e-011	-9.77881e-011	-9.70833e-011	-9.69403e-011	-9.75087e-011	-9.88155e-011	-1.00682e-010	-1.03278e-010	-1.06443e-010	
CoarseR60	-2.99818e-010	-2.55616e-010	-2.22353e-010	-1.94495e-010	-1.70953e-010	-1.50782e-010	-1.336e-010	-1.18826e-010	-1.06049e-010	-9.53274e-011	-8.60767e-011	-7.83136e-011	-7.17151e-011	-6.6597e-011	-6.21811e-011	-5.87463e-011	-5.63604e-011	-5.50015e-011	-5.42056e-011	-5.44685e-011	-5.52458e-011	-5.71163e-011	-5.93671e-011	-6.26604e-011	-6.68341e-011	-7.21504e-011	
CoarseR70	-2.53715e-010	-2.10558e-010	-1.78357e-010	-1.51093e-010	-1.28133e-010	-1.08546e-010	-9.20689e-011	-7.78556e-011	-6.56327e-011	-5.53617e-011	-4.6525e-011	-3.92112e-011	-3.33846e-011	-2.87014e-011	-2.48857e-011	-2.2264e-011	-2.05051e-011	-1.9804e-011	-1.99657e-011	-2.10204e-011	-2.31272e-011	-2.6106e-011	-3.02897e-011	-3.55755e-011	-4.33751e-011	-5.13498e-011	
CoarseR80	-2.14862e-010	-1.72643e-010	-1.41156e-010	-1.14615e-010	-9.23369e-011	-7.30944e-011	-5.69865e-011	-4.35005e-011	-3.15017e-011	-2.18295e-011	-1.35669e-011	-6.68435e-012	-1.12552e-012	2.89579e-012	6.08697e-012	8.07804e-012	8.84112e-012	8.73134e-012	7.58319e-012	5.18616e-012	1.79692e-012	-3.24234e-012	-1.09736e-011	-1.90698e-011	-2.70126e-011	-3.48846e-011	
CoarseR90	-1.81629e-010	-1.40348e-010	-1.09357e-010	-8.34262e-011	-6.16526e-011	-4.29503e-011	-2.72201e-011	-1.39747e-011	-2.54349e-012	6.90748e-012	1.47113e-011	2.09922e-011	2.57457e-011	2.94884e-011	3.18774e-011	3.30076e-011	3.31191e-011	3.20121e-011	2.95395e-011	2.58406e-011	1.96548e-011	1.09012e-011	2.67886e-012	-5.6804e-012	-1.38102e-011	-2.18119e-011	
CoarseR100	-1.52409e-010	-1.11733e-010	-8.13931e-011	-5.59983e-011	-3.45395e-011	-1.65131e-011	-1.14655e-012	1.18656e-011	2.27263e-011	3.17445e-011	3.91101e-011	4.47574e-011	4.93676e-011	5.24792e-011	5.41741e-011	5.44812e-011	5.35709e-011	5.11197e-011	4.71348e-011	3.98052e-011	3.10745e-011	2.25339e-011	1.39643e-011	5.56849e-012	-2.18663e-012	-9.63699e-012	
CoarseR110	-1.27129e-010	-8.70826e-011	-5.72097e-011	-3.23022e-011	-1.11999e-011	6.63926e-012	2.16168e-011	3.42432e-011	4.48433e-011	5.34282e-011	6.05109e-011	6.56809e-011	6.94778e-011	7.19289e-011	7.29372e-011	7.25629e-011	7.04512e-011	6.63182e-011	5.85492e-011	4.98424e-011	4.10515e-011	3.20564e-011	2.37498e-011	1.57507e-011	8.42496e-012	1.59334e-012	
CoarseR120	-1.04816e-010	-6.53789e-011	-3.5973e-011	-1.12077e-011	9.56296e-012	2.70197e-011	4.1795e-011	5.40216e-011	6.41765e-011	7.26746e-011	7.91027e-011	8.38028e-011	8.72676e-011	8.90274e-011	8.90032e-011	8.75925e-011	8.39597e-011	7.61789e-011	6.7312e-011	5.84319e-011	4.918e-011	4.06179e-011	3.27391e-011	2.52055e-011	1.819e-011	1.16636e-011	
CoarseR130	-8.48447e-011	-4.58491e-011	-1.66008e-011	7.70692e-012	2.81328e-011	4.53985e-011	5.97435e-011	7.19101e-011	8.16196e-011	8.96533e-011	9.57775e-011	1.00337e-010	1.02941e-010	1.03988e-010	1.0326e-010	1.00298e-010	9.32633e-011	8.44154e-011	7.5239e-011	6.59022e-011	5.72561e-011	4.88153e-011	4.14223e-011	3.42129e-011	2.75319e-011	2.13472e-011	
CoarseR140	-6.69333e-011	-2.83765e-011	6.07365e-013	2.47524e-011	4.48089e-011	6.20348e-011	7.63305e-011	8.80464e-011	9.76601e-011	1.05246e-010	1.11035e-010	1.1489e-010	1.16958e-010	1.17326e-010	1.15363e-010	1.09857e-010	1.00849e-010	9.14878e-011	8.20505e-011	7.31684e-011	6.48499e-011	5.69099e-011	4.9686e-011	4.28298e-011	3.65133e-011	3.0358e-011	
CoarseR150	-5.06428e-011	-1.23727e-011	1.63118e-011	4.0128e-011	6.01664e-011	7.70105e-011	9.10548e-011	1.02687e-010	1.12007e-010	1.19253e-010	1.24555e-010	1.28078e-010	1.29435e-010	1.28882e-010	1.25589e-010	1.17014e-010	1.0761e-010	9.80847e-011	8.86026e-011	8.00615e-011	7.20684e-011	6.4513e-011	5.74655e-011	5.10037e-011	4.48698e-011	3.89515e-011	
CoarseR160	-3.57231e-011	2.17869e-012	3.05291e-011	5.4358e-011	7.41714e-011	9.08016e-011	1.04607e-010	1.16105e-010	1.25331e-010	1.32219e-010	1.37363e-010	1.40167e-010	1.40808e-010	1.39026e-010	1.32621e-010	1.23392e-010	1.1361e-010	1.04035e-010	9.54332e-011	8.70819e-011	7.92933e-011	7.18937e-011	6.50859e-011	5.8634e-011	5.29577e-011	4.7264e-011	
CoarseR170	-2.24939e-011	1.5297e-011	4.34825e-011	6.73442e-011	8.69858e-011	1.03551e-010	1.17249e-010	1.28315e-010	1.37428e-010	1.44172e-010	1.48438e-010	1.51071e-010	1.50957e-010	1.47678e-010	1.38741e-010	1.29253e-010	1.19399e-010	1.10167e-010	1.01759e-010	9.3388e-011	8.60069e-011	7.9027e-011	7.24456e-011	6.62487e-011	6.04267e-011	5.49999e-011	
CoarseR180	-1.01164e-011	2.74166e-011	5.56275e-011	7.93031e-011	9.87355e-011	1.15173e-010	1.28834e-010	1.3978e-010	1.48547e-010	1.5496e-010	1.59043e-010	1.60944e-010	1.59963e-010	1.53848e-010	1.44759e-010	1.34698e-010	1.25202e-010	1.16166e-010	1.07774e-010	1.00188e-010	9.2837e-011	8.61104e-011	7.95779e-011	7.36213e-011	6.80774e-011	6.27165e-011	
CoarseR190	1.18438e-012	3.87526e-011	6.6675e-011	8.99357e-011	1.0972e-010	1.26093e-010	1.39462e-010	1.50299e-010	1.58733e-010	1.65002e-010	1.68735e-010	1.70098e-010	1.68054e-010	1.59603e-010	1.50089e-010	1.40262e-010	1.30796e-010	1.22354e-010	1.13982e-010	1.06456e-010	9.95299e-011	9.26549e-011	8.65904e-011	8.07204e-011	7.52748e-011	7.00263e-011	
CoarseR200	1.15717e-011	4.88671e-011	7.68197e-011	1.00254e-010	1.19618e-010	1.36134e-010	1.49397e-010	1.6026e-010	1.68566e-010	1.74497e-010	1.77658e-010	1.78283e-010	1.73865e-010	1.6526e-010	1.55395e-010	1.45411e-010	1.36504e-010	1.27915e-010	1.19982e-010	1.12695e-010	1.05666e-010	9.92634e-011	9.34626e-011	8.76927e-011	8.21736e-011	7.72236e-011	
CoarseR210	2.1076e-011	5.82501e-011	8.63929e-011	1.09627e-010	1.29104e-010	1.45342e-010	1.58717e-010	1.69461e-010	1.77621e-010	1.82983e-010	1.86191e-010	1.8592e-010	1.79407e-010	1.70388e-010	1.60433e-010	1.50868e-010	1.41997e-010	1.33667e-010	1.25986e-010	1.18949e-010	1.12192e-010	1.05884e-010	1.00007e-010	9.43286e-011	8.90952e-011	8.40616e-011	
CoarseR220	2.9731e-011	6.69707e-011	9.4926e-011	1.18167e-010	1.37755e-010	1.54096e-010	1.67352e-010	1.77786e-010	1.85793e-010	1.91228e-010	1.93857e-010	1.92924e-010	1.84677e-010	1.75264e-010	1.65547e-010	1.56199e-010	1.47413e-010	1.39502e-010	1.31725e-010	1.24791e-010	1.183e-010	1.11904e-010	1.06309e-010	1.00776e-010	9.54427e-011	9.07639e-011	
CoarseR230	3.75386e-011	7.48438e-011	1.02823e-010	1.26189e-010	1.45748e-010	1.62055e-010	1.75377e-010	1.85852e-010	1.93725e-010	1.98977e-010	2.00885e-010	1.98494e-010	1.89819e-010	1.8001e-010	1.7032e-010	1.61271e-010	1.52916e-010	1.45113e-010	1.37408e-010	1.30743e-010	1.24182e-010	1.1807e-010	1.12228e-010	1.06988e-010	1.01794e-010	9.71999e-011	
CoarseR240	4.50907e-011	8.23042e-011	1.10197e-010	1.33808e-010	1.53284e-010	1.69646e-010	1.82713e-010	1.93228e-010	2.00949e-010	2.05874e-010	2.07848e-010	2.03485e-010	1.947e-010	1.84831e-010	1.75418e-010	1.66421e-010	1.58127e-010	1.50432e-010	1.43184e-010	1.36276e-010	1.30033e-010	1.24019e-010	1.18473e-010	1.12996e-010	1.07916e-010	1.03491e-010	
CoarseR250	5.20267e-011	8.90504e-011	1.17238e-010	1.40747e-010	1.60162e-010	1.76613e-010	1.89727e-010	2.00164e-010	2.0796e-010	2.12682e-010	2.14158e-010	2.08514e-010	1.99533e-010	1.89742e-010	1.80379e-010	1.71495e-010	1.63292e-010	1.55675e-010	1.48549e-010	1.42114e-010	1.35797e-010	1.29904e-010	1.24295e-010	1.19157e-010	1.14193e-010	1.09319e-010	
MinCout:	6.07365e-013	CoarseR:	140	CoarseC:	20

	CoarseC40	CoarseC41	CoarseC42	CoarseC43	CoarseC44	CoarseC45	CoarseC46	CoarseC47	CoarseC48	CoarseC49	CoarseC50	CoarseC51	CoarseC52	CoarseC53	CoarseC54	CoarseC55	CoarseC56	CoarseC57	CoarseC58	CoarseC59	CoarseC60	
CoarseR100	-3.45435e-011	-3.26058e-011	-3.06694e-011	-2.87045e-011	-2.70656e-011	-2.52858e-011	-2.3337e-011	-2.15536e-011	-1.97448e-011	-1.81419e-011	-1.6371e-011	-1.48866e-011	-1.30897e-011	-1.16227e-011	-9.96694e-012	-8.5151e-012	-7.04239e-012	-5.42242e-012	-4.10909e-012	-2.46348e-012	-1.1671e-012	
CoarseR101	-3.22385e-011	-3.03014e-011	-2.83166e-011	-2.6401e-011	-2.46239e-011	-2.27977e-011	-2.08964e-011	-1.90657e-011	-1.74681e-011	-1.5513e-011	-1.38868e-011	-1.25667e-011	-1.06281e-011	-8.99689e-012	-7.69212e-012	-6.03463e-012	-4.41738e-012	-2.93905e-012	-1.46382e-012	-1.70333e-013	1.47698e-012	
CoarseR102	-2.95682e-011	-2.76581e-011	-2.58604e-011	-2.39221e-011	-2.21203e-011	-2.03415e-011	-1.83935e-011	-1.64454e-011	-1.48241e-011	-1.31771e-011	-1.15518e-011	-9.92569e-012	-8.31716e-012	-6.66389e-012	-5.05079e-012	-3.74587e-012	-2.1074e-012	-4.87868e-013	8.44312e-013	2.48906e-012	3.78408e-012	
CoarseR103	-2.72789e-011	-2.53458e-011	-2.33842e-011	-2.16334e-011	-1.98319e-011	-1.78663e-011	-1.60833e-011	-1.43226e-011	-1.26799e-011	-1.08915e-011	-9.10068e-012	-7.47459e-012	-5.84508e-012	-4.54413e-012	-2.9323e-012	-1.2752e-012	3.62858e-013	1.65066e-012	3.29308e-012	4.60576e-012	6.08466e-012	
CoarseR104	-2.47915e-011	-2.29964e-011	-2.1038e-011	-1.90981e-011	-1.73227e-011	-1.57094e-011	-1.37623e-011	-1.18145e-011	-1.01943e-011	-8.57184e-012	-6.78247e-012	-5.29861e-012	-3.52667e-012	-2.03871e-012	-4.05518e-013	1.06281e-012	2.5146e-012	4.15435e-012	5.46445e-012	6.92051e-012	8.23424e-012	
CoarseR105	-2.26166e-011	-2.07074e-011	-1.87231e-011	-1.67835e-011	-1.51731e-011	-1.3206e-011	-1.12837e-011	-9.66627e-012	-8.02427e-012	-6.23601e-012	-4.447e-012	-2.98746e-012	-1.21456e-012	2.71352e-013	1.73906e-012	3.2071e-012	4.84407e-012	6.31826e-012	7.77163e-012	9.25025e-012	1.07081e-011	
CoarseR106	-2.01253e-011	-1.81669e-011	-1.63708e-011	-1.44569e-011	-1.26823e-011	-1.08571e-011	-9.10066e-012	-7.15218e-012	-5.51058e-012	-3.91178e-012	-2.12286e-012	-6.40399e-013	1.15275e-012	2.42916e-012	4.08284e-012	5.55044e-012	7.00012e-012	8.61826e-012	1.01128e-011	1.15904e-011	1.29034e-011	
CoarseR107	-1.79721e-011	-1.61781e-011	-1.42182e-011	-1.2281e-011	-1.06473e-011	-8.70524e-012	-6.92497e-012	-5.1437e-012	-3.52539e-012	-1.73912e-012	4.97475e-014	1.53094e-012	3.13594e-012	4.78733e-012	6.39705e-012	7.69895e-012	9.33494e-012	1.07852e-011	1.21137e-011	1.37559e-011	1.50472e-011	
CoarseR108	-1.57572e-011	-1.38238e-011	-1.203e-011	-1.00921e-011	-8.31881e-012	-6.51842e-012	-4.5735e-012	-2.79259e-012	-1.34041e-012	6.11412e-013	2.21136e-012	3.69218e-012	5.48541e-012	6.94773e-012	8.60079e-012	9.90089e-012	1.15155e-011	1.29856e-011	1.42931e-011	1.59136e-011	1.72254e-011	
CoarseR109	-1.35796e-011	-1.16226e-011	-9.68847e-012	-7.72703e-012	-6.1191e-012	-4.15343e-012	-2.5643e-012	-5.94288e-013	1.0458e-012	2.80849e-012	4.43011e-012	6.07653e-012	7.68009e-012	9.14263e-012	1.07732e-011	1.20944e-011	1.3729e-011	1.53458e-011	1.66511e-011	1.81048e-011	1.94139e-011	
CoarseR110	-1.12254e-011	-9.26851e-012	-7.47476e-012	-5.53778e-012	-3.57479e-012	-1.94136e-012	-2.09213e-014	1.59351e-012	3.40011e-012	5.01897e-012	6.63926e-012	8.28524e-012	9.88919e-012	1.13502e-011	1.29801e-011	1.428e-011	1.59144e-011	1.7551e-011	1.88574e-011	2.03085e-011	2.16191e-011	
CoarseR111	-8.99729e-012	-7.04116e-012	-5.27465e-012	-3.31397e-012	-1.54018e-012	2.59467e-013	2.01236e-012	3.79312e-012	5.43252e-012	7.40604e-012	8.83817e-012	1.04609e-011	1.2086e-011	1.33793e-011	1.50087e-011	1.64748e-011	1.81086e-011	1.95777e-011	2.10479e-011	2.23339e-011	2.38106e-011	
CoarseR112	-6.78479e-012	-4.82898e-012	-3.06026e-012	-1.12441e-012	6.71006e-013	2.30495e-012	4.22437e-012	6.00322e-012	7.6423e-012	9.42604e-012	1.10241e-011	1.2503e-011	1.41274e-011	1.57541e-011	1.72157e-011	1.86817e-011	2.01474e-011	2.17829e-011	2.30659e-011	2.45595e-011	2.58468e-011	
CoarseR113	-4.74992e-012	-2.98713e-012	-1.02937e-012	9.3049e-013	2.70359e-012	4.47903e-012	6.27778e-012	8.03396e-012	9.67249e-012	1.12895e-011	1.29089e-011	1.45538e-011	1.63221e-011	1.76366e-011	1.92443e-011	2.07301e-011	2.21725e-011	2.38101e-011	2.51117e-011	2.64152e-011	2.78911e-011	
CoarseR114	-2.70774e-012	-7.52223e-013	1.04032e-012	2.975e-012	4.74779e-012	6.37816e-012	8.32108e-012	1.01008e-011	1.1715e-011	1.33533e-011	1.51181e-011	1.65948e-011	1.83627e-011	1.96765e-011	2.13042e-011	2.27693e-011	2.42336e-011	2.57001e-011	2.71491e-011	2.84551e-011	2.99274e-011	
CoarseR115	-6.2597e-013	1.30391e-012	3.09581e-012	5.03083e-012	6.99207e-012	8.59853e-012	1.03513e-011	1.21511e-011	1.3957e-011	1.55728e-011	1.7191e-011	1.8647e-011	2.04587e-011	2.17276e-011	2.33548e-011	2.48395e-011	2.64513e-011	2.77263e-011	2.91976e-011	3.04995e-011	3.21437e-011	
CoarseR116	1.60689e-012	3.37187e-012	5.32832e-012	7.26331e-012	8.86551e-012	1.06877e-011	1.26055e-011	1.41919e-011	1.58293e-011	1.76132e-011	1.92522e-011	2.07078e-011	2.23299e-011	2.38103e-011	2.54166e-011	2.68777e-011	2.83404e-011	2.98092e-011	3.12763e-011	3.25583e-011	3.40519e-011	
CoarseR117	3.49099e-012	5.47018e-012	7.23695e-012	9.16983e-012	1.09415e-011	1.25695e-011	1.45116e-011	1.62904e-011	1.79026e-011	1.95173e-011	2.13031e-011	2.27793e-011	2.44007e-011	2.6048e-011	2.75062e-011	2.8778e-011	3.04084e-011	3.18728e-011	3.31745e-011	3.46242e-011	3.59487e-011	
CoarseR118	5.58028e-012	7.53335e-012	9.2997e-012	1.10881e-011	1.28592e-011	1.46578e-011	1.65972e-011	1.81816e-011	1.98178e-011	2.16008e-011	2.32171e-011	2.46686e-011	2.62894e-011	2.79364e-011	2.93939e-011	3.06884e-011	3.23181e-011	3.37628e-011	3.50828e-011	3.65319e-011	3.78146e-011	
CoarseR119	7.64986e-012	9.43767e-012	1.13689e-011	1.31608e-011	1.49278e-011	1.67238e-011	1.84992e-011	2.02493e-011	2.1888e-011	2.35013e-011	2.5117e-011	2.65921e-011	2.83556e-011	2.98586e-011	3.12916e-011	3.27547e-011	3.42147e-011	3.56777e-011	3.71473e-011	3.84268e-011	3.97268e-011	
CoarseR120	9.56491e-012	1.15173e-011	1.31368e-011	1.50677e-011	1.68636e-011	1.86363e-011	2.05525e-011	2.21825e-011	2.36262e-011	2.54084e-011	2.70233e-011	2.84978e-011	3.02846e-011	3.17389e-011	3.31993e-011	3.46814e-011	3.60975e-011	3.75836e-011	3.90295e-011	4.03266e-011	4.18002e-011	
MinCout:	-2.09213e-014	CoarseR:	110	CoarseC:	46

	FineC0	FineC10	FineC20	FineC30	FineC40	FineC50	FineC60	FineC70	FineC80	FineC90	FineC100	FineC110	FineC120	FineC130	FineC140	FineC150	FineC160	FineC170	FineC180	FineC190	FineC200	FineC210	FineC220	FineC230	FineC240	FineC250	
FineR0	-1.36389e-010	-1.09163e-010	-9.24362e-011	-8.01919e-011	-7.11252e-011	-6.38327e-011	-5.80072e-011	-5.32768e-011	-4.92302e-011	-4.59682e-011	-4.31427e-011	-4.05934e-011	-3.85158e-011	-3.64321e-011	-3.47965e-011	-3.34461e-011	-3.20966e-011	-3.09069e-011	-2.97229e-011	-2.86573e-011	-2.77567e-011	-2.7003e-011	-2.62661e-011	-2.55106e-011	-2.50871e-011	-2.43335e-011	
FineR10	-1.19824e-010	-9.25765e-011	-7.60073e-011	-6.40843e-011	-5.48385e-011	-4.77124e-011	-4.20546e-011	-3.72807e-011	-3.34502e-011	-3.01665e-011	-2.71816e-011	-2.48257e-011	-2.2561e-011	-2.08088e-011	-1.90119e-011	-1.74978e-011	-1.63361e-011	-1.4965e-011	-1.39224e-011	-1.30467e-011	-1.21478e-011	-1.12476e-011	-1.06793e-011	-9.90482e-012	-9.14933e-012	-8.72633e-012	
FineR20	-1.12655e-010	-8.53862e-011	-6.87937e-011	-5.68836e-011	-4.76693e-011	-4.04956e-011	-3.48672e-011	-3.0097e-011	-2.62449e-011	-2.29906e-011	-2.01508e-011	-1.76335e-011	-1.55581e-011	-1.34573e-011	-1.18264e-011	-1.05029e-011	-9.15415e-012	-7.97103e-012	-6.93004e-012	-5.86672e-012	-4.99033e-012	-4.23812e-012	-3.48511e-012	-2.75218e-012	-2.14228e-012	-1.5345e-012	
FineR30	-1.08211e-010	-8.12745e-011	-6.4658e-011	-5.27822e-011	-4.35485e-011	-3.64284e-011	-3.05912e-011	-2.60122e-011	-2.19751e-011	-1.87458e-011	-1.59076e-011	-1.3533e-011	-1.13178e-011	-9.52585e-012	-7.7316e-012	-6.24331e-012	-5.06231e-012	-3.88037e-012	-2.67422e-012	-1.79951e-012	-9.02546e-013	-1.51008e-013	7.48022e-013	1.33378e-012	1.94296e-012	2.34398e-012	
FineR40	-1.05585e-010	-7.86413e-011	-6.18743e-011	-4.99769e-011	-4.09337e-011	-3.36281e-011	-2.79829e-011	-2.32181e-011	-1.93734e-011	-1.60983e-011	-1.32846e-011	-1.09116e-011	-8.69785e-012	-6.74198e-012	-5.11393e-012	-3.62657e-012	-2.2811e-012	-1.26541e-012	-6.09325e-014	9.79755e-013	1.70881e-012	2.60628e-012	3.19264e-012	3.94564e-012	4.69932e-012	5.14082e-012	
FineR50	-1.03689e-010	-7.67249e-011	-6.01845e-011	-4.80938e-011	-3.90546e-011	-3.19171e-011	-2.61094e-011	-2.1349e-011	-1.75036e-011	-1.42301e-011	-1.12525e-011	-9.06952e-012	-6.811e-012	-4.87891e-012	-3.25105e-012	-1.76437e-012	-4.41267e-013	7.82689e-013	1.77819e-012	2.8399e-012	3.56847e-012	4.48662e-012	5.21756e-012	5.80427e-012	6.57853e-012	7.16524e-012	
FineR60	-1.02233e-010	-7.52409e-011	-5.87028e-011	-4.66137e-011	-3.75759e-011	-3.04394e-011	-2.46324e-011	-2.00338e-011	-1.60025e-011	-1.29193e-011	-9.94241e-012	-7.57149e-012	-5.3137e-012	-3.40468e-012	-1.77795e-012	-2.91683e-013	8.87137e-013	2.23424e-012	3.10535e-012	4.16659e-012	5.06202e-012	5.79168e-012	6.71074e-012	7.29529e-012	7.90334e-012	8.65786e-012	
FineR70	-1.01082e-010	-7.41269e-011	-5.75636e-011	-4.56374e-011	-3.6442e-011	-2.94694e-011	-2.36646e-011	-1.88804e-011	-1.50617e-011	-1.16494e-011	-8.7916e-012	-6.44498e-012	-4.37619e-012	-2.27953e-012	-6.53266e-013	6.66152e-013	2.17694e-012	3.19094e-012	4.39457e-012	5.28837e-012	6.18342e-012	7.05903e-012	7.64427e-012	8.41759e-012	8.98222e-012	9.59083e-012	
FineR80	-1.00313e-010	-7.33996e-011	-5.68022e-011	-4.47181e-011	-3.56549e-011	-2.85197e-011	-2.27439e-011	-1.815e-011	-1.41426e-011	-1.0872e-011	-7.87354e-012	-5.69311e-012	-3.45918e-012	-1.52852e-012	1.19648e-013	1.60493e-012	2.94873e-012	4.10669e-012	5.14413e-012	6.03772e-012	6.93257e-012	7.85012e-012	8.58053e-012	9.33244e-012	9.77226e-012	1.05266e-011	
FineR90	-9.95762e-011	-7.26349e-011	-5.60403e-011	-4.41449e-011	-3.4926e-011	-2.77906e-011	-2.21532e-011	-1.72291e-011	-1.33879e-011	-1.01179e-011	-7.30795e-012	-4.93937e-012	-2.89474e-012	-9.41891e-013	8.49202e-013	2.33418e-012	3.51171e-012	4.85774e-012	5.72832e-012	6.78819e-012	7.8281e-012	8.41191e-012	9.16269e-012	9.8939e-012	1.06677e-011	1.10878e-011	
FineR100	-9.90039e-011	-7.20566e-011	-5.54649e-011	-4.35717e-011	-3.45121e-011	-2.72204e-011	-2.14432e-011	-1.66608e-011	-1.28204e-011	-9.71561e-012	-6.74166e-012	-4.37361e-012	-2.32944e-012	-3.76958e-013	1.41384e-012	2.89852e-012	4.24183e-012	5.2766e-012	6.47931e-012	7.51849e-012	8.39136e-012	9.14121e-012	9.7051e-012	1.04567e-011	1.12305e-011	1.16705e-011	
FineR110	-9.86174e-011	-7.16652e-011	-5.50766e-011	-4.29989e-011	-3.38049e-011	-2.68376e-011	-2.10369e-011	-1.62559e-011	-1.24168e-011	-9.00718e-012	-6.36387e-012	-3.83024e-012	-1.76354e-012	1.65987e-013	1.79062e-012	3.27512e-012	4.61828e-012	5.98597e-012	7.02261e-012	7.89377e-012	8.78897e-012	9.51704e-012	1.04569e-011	1.1188e-011	1.1606e-011	1.22124e-011	
FineR120	-9.82208e-011	-7.1087e-011	-5.45295e-011	-4.26126e-011	-3.33944e-011	-2.63205e-011	-2.0655e-011	-1.58993e-011	-1.20366e-011	-8.79356e-012	-5.82009e-012	-3.28663e-012	-1.19712e-012	7.31947e-013	2.33385e-012	3.81827e-012	5.16137e-012	6.1959e-012	7.39846e-012	8.26936e-012	9.1644e-012	1.00599e-011	1.08104e-011	1.13966e-011	1.19808e-011	1.27551e-011	
FineR130	-9.78347e-011	-7.07331e-011	-5.43393e-011	-4.22313e-011	-3.30399e-011	-2.60747e-011	-2.02756e-011	-1.55202e-011	-1.16819e-011	-8.2729e-012	-5.6069e-012	-3.07402e-012	-1.00787e-012	9.20923e-013	2.54502e-012	4.1952e-012	5.37184e-012	6.71715e-012	7.5864e-012	8.64628e-012	9.54029e-012	1.0269e-011	1.10194e-011	1.17706e-011	1.23562e-011	1.29422e-011	
FineR140	-9.74712e-011	-7.04988e-011	-5.39178e-011	-4.20367e-011	-3.2817e-011	-2.57199e-011	-1.99207e-011	-1.53288e-011	-1.13252e-011	-8.05802e-012	-5.22798e-012	-2.69557e-012	-6.5277e-013	1.2986e-012	2.89986e-012	4.40615e-012	5.72645e-012	6.92682e-012	7.94164e-012	9.00054e-012	9.74892e-012	1.06233e-011	1.13735e-011	1.21462e-011	1.28779e-011	1.33176e-011	
FineR150	-9.72822e-011	-7.03394e-011	-5.35915e-011	-4.16779e-011	-3.26537e-011	-2.5337e-011	-1.97017e-011	-1.49722e-011	-1.11108e-011	-7.70283e-012	-4.87228e-012	-2.50544e-012	-2.74569e-013	1.6312e-012	3.25518e-012	4.59449e-012	6.10343e-012	7.3036e-012	8.31734e-012	9.20968e-012	1.00825e-011	1.09993e-011	1.1729e-011	1.24801e-011	1.29192e-011	1.36717e-011	
FineR160	-9.69184e-011	-6.99482e-011	-5.33967e-011	-4.14842e-011	-3.22694e-011	-2.5145e-011	-1.95103e-011	-1.47813e-011	-1.07544e-011	-7.48825e-012	-4.68243e-012	-2.31585e-012	-8.5212e-014	1.84285e-012	3.46616e-012	4.78326e-012	6.12533e-012	7.49211e-012	8.52776e-012	9.54329e-012	1.04589e-011	1.13538e-011	1.19375e-011	1.26681e-011	1.32735e-011	1.3881e-011	
FineR170	-9.67196e-011	-6.97816e-011	-5.32019e-011	-4.12905e-011	-3.21027e-011	-2.47873e-011	-1.93437e-011	-1.45903e-011	-1.05638e-011	-7.3224e-012	-4.32654e-012	-2.12618e-012	2.7029e-013	2.00954e-012	3.65519e-012	5.13829e-012	6.64699e-012	7.6585e-012	8.69414e-012	9.75258e-012	1.06252e-011	1.15419e-011	1.22919e-011	1.28763e-011	1.34614e-011	1.40672e-011	
FineR180	-9.65532e-011	-6.96151e-011	-5.29734e-011	-4.11239e-011	-3.18805e-011	-2.47862e-011	-1.91521e-011	-1.43992e-011	-1.03972e-011	-7.13141e-012	-4.13652e-012	-1.93644e-012	4.36824e-013	2.22134e-012	4.01056e-012	5.30474e-012	6.81346e-012	7.84715e-012	9.04895e-012	9.941e-012	1.08343e-011	1.17083e-011	1.24583e-011	1.30644e-011	1.36494e-011	1.44017e-011	
FineR190	-9.65096e-011	-6.93902e-011	-5.28068e-011	-4.077e-011	-3.15264e-011	-2.45661e-011	-1.87708e-011	-1.42325e-011	-1.02064e-011	-6.94103e-012	-4.13588e-012	-1.60451e-012	4.60197e-013	2.38788e-012	4.01092e-012	5.66027e-012	6.83605e-012	8.03586e-012	9.04911e-012	1.02748e-011	1.10008e-011	1.18966e-011	1.24801e-011	1.32308e-011	1.38158e-011	1.44232e-011	
FineR200	-9.61566e-011	-6.92235e-011	-5.24531e-011	-4.05721e-011	-3.15252e-011	-2.43993e-011	-1.86041e-011	-1.3852e-011	-1.00165e-011	-6.60979e-012	-3.94574e-012	-1.41464e-012	6.26905e-013	2.57729e-012	4.20014e-012	5.68246e-012	7.00258e-012	8.22376e-012	9.2589e-012	1.02749e-011	1.10228e-011	1.19391e-011	1.2667e-011	1.33973e-011	1.4004e-011	1.46097e-011	
FineR210	-9.6113e-011	-6.90568e-011	-5.24516e-011	-4.05707e-011	-3.1329e-011	-2.42361e-011	-1.8603e-011	-1.38755e-011	-9.82471e-012	-6.58464e-012	-3.77875e-012	-1.41396e-012	8.16444e-013	2.60028e-012	4.38892e-012	5.87157e-012	7.19074e-012	8.39096e-012	9.57041e-012	1.04844e-011	1.13556e-011	1.20838e-011	1.28335e-011	1.34394e-011	1.41906e-011	1.47762e-011	
FineR220	-9.59464e-011	-6.88985e-011	-5.24449e-011	-4.03728e-011	-3.13277e-011	-2.40413e-011	-1.84094e-011	-1.34949e-011	-9.82381e-012	-6.39353e-012	-3.58923e-012	-1.0586e-012	1.00561e-012	2.93293e-012	4.55511e-012	6.03779e-012	7.37941e-012	8.5789e-012	9.61394e-012	1.04626e-011	1.13558e-011	1.22721e-011	1.30232e-011	1.37738e-011	1.41907e-011	1.49644e-011	
FineR230	-9.57909e-011	-6.88601e-011	-5.20912e-011	-4.02113e-011	-3.09704e-011	-2.40122e-011	-1.82187e-011	-1.34939e-011	-9.49295e-012	-6.3927e-012	-3.5885e-012	-1.05794e-012	1.02909e-012	2.93308e-012	4.55555e-012	6.20443e-012	7.54604e-012	8.57922e-012	9.61421e-012	1.08395e-011	1.15431e-011	1.24387e-011	1.30437e-011	1.37941e-011	1.45252e-011	1.51309e-011	
FineR240	-9.57799e-011	-6.88217e-011	-5.20845e-011	-4.01787e-011	-3.09953e-011	-2.38489e-011	-1.82158e-011	-1.34916e-011	-9.46698e-012	-6.20292e-012	-3.23295e-012	-1.05728e-012	1.19581e-012	3.12251e-012	4.7444e-012	6.22671e-012	7.56801e-012	8.74553e-012	9.96909e-012	1.08386e-011	1.17107e-011	1.2627e-011	1.33563e-011	1.41069e-011	1.45454e-011	1.52991e-011	
FineR250	-9.56243e-011	-6.84982e-011	-5.20829e-011	-4.00172e-011	-3.08035e-011	-2.36797e-011	-1.78861e-011	-1.31612e-011	-9.27692e-012	-6.20206e-012	-3.25574e-012	-7.01817e-013	1.36192e-012	3.12267e-012	4.91117e-012	6.39368e-012	7.75673e-012	8.76722e-012	9.96832e-012	1.10061e-011	1.17317e-011	1.26478e-011	1.33972e-011	1.41272e-011	1.45657e-011	1.52975e-011	
MinCout:	-6.09325e-014	FineR:	40	FineC:	180

	FineC120	FineC121	FineC122	FineC123	FineC124	FineC125	FineC126	FineC127	FineC128	FineC129	FineC130	FineC131	FineC132	FineC133	FineC134	FineC135	FineC136	FineC137	FineC138	FineC139	FineC140	
FineR100	-2.14058e-012	-1.99762e-012	-1.87731e-012	-1.71157e-012	-1.40256e-012	-1.2594e-012	-1.1162e-012	-8.29621e-013	-6.86295e-013	-5.20362e-013	-3.99497e-013	-6.75596e-014	7.59475e-014	1.97022e-013	3.63108e-013	6.72728e-013	6.50285e-013	7.94011e-013	9.37786e-013	1.26986e-012	1.41384e-012	
FineR101	-2.16354e-012	-1.99762e-012	-1.68872e-012	-1.54567e-012	-1.40256e-012	-1.2594e-012	-9.50282e-013	-8.07024e-013	-6.63718e-013	-3.54428e-013	-2.11018e-013	-6.75596e-014	7.59475e-014	3.85459e-013	3.62978e-013	5.29069e-013	6.72728e-013	9.82407e-013	1.12617e-012	1.26998e-012	1.41384e-012	
FineR102	-1.9749e-012	-1.83192e-012	-1.6889e-012	-1.54583e-012	-1.23678e-012	-1.09361e-012	-9.50386e-013	-6.41171e-013	-4.97846e-013	-3.54471e-013	-1.88479e-013	-2.11018e-013	9.83857e-014	2.41898e-013	3.85459e-013	6.9503e-013	8.38694e-013	9.82407e-013	1.12617e-012	1.4361e-012	1.41371e-012	
FineR103	-2.11782e-012	-1.9749e-012	-1.68873e-012	-1.37991e-012	-1.21412e-012	-1.23678e-012	-9.50316e-013	-8.07069e-013	-4.97846e-013	-1.88517e-013	-4.50885e-014	-6.76328e-014	7.58638e-014	3.85379e-013	5.51415e-013	6.95094e-013	8.38772e-013	1.1708e-012	1.29227e-012	1.4361e-012	1.41371e-012	
FineR104	-2.11782e-012	-1.80899e-012	-1.66601e-012	-1.52298e-012	-1.21399e-012	-1.07086e-012	-9.27676e-013	-7.84448e-013	-3.31897e-013	-3.5448e-013	-1.88517e-013	1.20871e-013	2.64353e-013	4.07885e-013	5.51465e-013	6.95094e-013	1.0271e-012	9.82309e-013	1.12606e-012	1.29227e-012	1.6021e-012	
FineR105	-1.92917e-012	-1.83192e-012	-1.5001e-012	-1.35707e-012	-1.2368e-012	-1.07086e-012	-7.61744e-013	-6.1851e-013	-4.75228e-013	-3.31897e-013	-2.25634e-014	1.20871e-013	2.64353e-013	4.07885e-013	7.39927e-013	8.83542e-013	1.02721e-012	1.00476e-012	1.31448e-012	1.45827e-012	1.62449e-012	
FineR106	-1.95212e-012	-1.64325e-012	-1.50025e-012	-1.35721e-012	-1.21411e-012	-9.05022e-013	-7.61823e-013	-6.18576e-013	-3.09318e-013	-1.65968e-013	-2.25687e-014	1.20879e-013	4.30359e-013	5.7391e-013	5.51399e-013	8.61158e-013	1.19331e-012	1.19319e-012	1.33691e-012	1.48068e-012	1.60226e-012	
FineR107	-1.76344e-012	-1.62051e-012	-1.52313e-012	-1.19127e-012	-1.02549e-012	-9.05022e-013	-5.95872e-013	-4.29993e-013	-3.09318e-013	-1.4338e-013	-2.25687e-014	2.86857e-013	4.5289e-013	5.96421e-013	7.40002e-013	8.83503e-013	1.02716e-012	1.19319e-012	1.31461e-012	1.64684e-012	1.76828e-012	
FineR108	-1.78638e-012	-1.7862e-012	-1.33446e-012	-1.16857e-012	-1.02549e-012	-7.16411e-013	-5.73226e-013	-4.29993e-013	-1.20749e-013	2.25878e-014	1.65973e-013	3.09407e-013	4.52836e-013	5.96343e-013	7.39899e-013	8.83503e-013	1.19316e-012	1.33686e-012	1.50306e-012	1.64684e-012	1.62443e-012	
FineR109	-1.76336e-012	-1.62044e-012	-1.47747e-012	-1.02544e-012	-1.04815e-012	-7.39149e-013	-7.61819e-013	-4.52612e-013	-1.20749e-013	2.25878e-014	1.65973e-013	2.86836e-013	4.52836e-013	6.18873e-013	7.6241e-013	1.07199e-012	1.21563e-012	1.35932e-012	1.50306e-012	1.64663e-012	1.79044e-012	
FineR110	-1.76336e-012	-1.62044e-012	-1.31153e-012	-1.16851e-012	-1.02544e-012	-8.82318e-013	-5.73184e-013	-4.29961e-013	-1.20757e-013	1.8858e-013	1.65987e-013	3.0941e-013	4.52882e-013	6.18873e-013	9.05981e-013	1.07199e-012	1.21563e-012	1.35932e-012	1.52532e-012	1.66906e-012	1.81286e-012	
FineR111	-1.74058e-012	-1.45465e-012	-1.28878e-012	-1.16851e-012	-8.59483e-013	-7.16358e-013	-5.73184e-013	-4.29961e-013	-1.20714e-013	2.26122e-014	1.65987e-013	3.0941e-013	6.1888e-013	7.62406e-013	9.05981e-013	1.0721e-012	1.38177e-012	1.3593e-012	1.50302e-012	1.66906e-012	1.79062e-012	
FineR112	-1.57464e-012	-1.43174e-012	-1.28878e-012	-9.79832e-013	-8.36775e-013	-6.93669e-013	-5.73184e-013	-2.4134e-013	-1.20714e-013	4.52244e-014	3.54567e-013	4.97976e-013	6.41435e-013	7.84942e-013	1.07199e-012	1.23812e-012	1.21562e-012	1.3593e-012	1.66905e-012	1.83527e-012	1.97908e-012	
FineR113	-1.59758e-012	-1.28869e-012	-1.12284e-012	-9.79832e-013	-8.59565e-013	-5.27709e-013	-3.84549e-013	-2.4134e-013	6.78939e-014	2.11206e-013	3.54567e-013	4.97976e-013	8.07432e-013	9.50944e-013	9.28409e-013	1.07199e-012	1.23812e-012	1.54779e-012	1.69151e-012	1.83527e-012	1.97908e-012	
FineR114	-1.74047e-012	-1.43163e-012	-1.12294e-012	-8.13954e-013	-6.70878e-013	-6.93591e-013	-3.84549e-013	-7.53692e-014	6.78939e-014	2.11206e-013	3.54567e-013	6.63968e-013	6.41394e-013	8.07432e-013	9.50944e-013	1.238e-012	1.40413e-012	1.54779e-012	1.69151e-012	2.0013e-012	1.97886e-012	
FineR115	-1.57453e-012	-1.43163e-012	-1.12273e-012	-9.79733e-013	-8.36687e-013	-5.27753e-013	-3.61749e-013	-2.18583e-013	6.79099e-014	3.77236e-013	3.54619e-013	4.9796e-013	6.41465e-013	8.07432e-013	1.11695e-012	1.26051e-012	1.40413e-012	1.54779e-012	1.85753e-012	1.83507e-012	1.97886e-012	
FineR116	-1.57453e-012	-1.43163e-012	-1.12273e-012	-9.79733e-013	-8.36687e-013	-5.27617e-013	-3.84468e-013	-2.4127e-013	2.33905e-013	2.11268e-013	3.54619e-013	4.98018e-013	8.07477e-013	9.73429e-013	1.11695e-012	1.26051e-012	1.54781e-012	1.54764e-012	1.71381e-012	1.83526e-012	1.97906e-012	
FineR117	-1.38577e-012	-1.24289e-012	-1.09996e-012	-8.1377e-013	-6.70718e-013	-5.04904e-013	-3.61774e-013	-5.26104e-014	6.79672e-014	2.11268e-013	3.54619e-013	6.86622e-013	8.07477e-013	9.73429e-013	1.11695e-012	1.26055e-012	1.40416e-012	1.54781e-012	1.87983e-012	2.02355e-012	2.16733e-012	
FineR118	-1.38577e-012	-1.24289e-012	-9.34002e-013	-8.1377e-013	-6.47986e-013	-3.3893e-013	-1.95795e-013	-5.26104e-014	6.79672e-014	3.77264e-013	5.20619e-013	6.86622e-013	8.30056e-013	9.73488e-013	1.28309e-012	1.26055e-012	1.40416e-012	1.71384e-012	1.85755e-012	2.02377e-012	2.02355e-012	
FineR119	-1.21982e-012	-1.07694e-012	-9.34002e-013	-7.91018e-013	-4.82017e-013	-3.3893e-013	-1.95795e-013	1.13374e-013	2.56613e-013	3.999e-013	5.43237e-013	8.52628e-013	9.96067e-013	9.73488e-013	1.11699e-012	1.44911e-012	1.5927e-012	1.73634e-012	1.88003e-012	2.18981e-012	2.3336e-012	
FineR120	-1.36266e-012	-1.07703e-012	-7.68105e-013	-6.25103e-013	-4.59285e-013	-4.82017e-013	-2.98156e-014	1.13374e-013	2.56613e-013	3.999e-013	7.31855e-013	6.8662e-013	8.30029e-013	1.16208e-012	1.30557e-012	1.44911e-012	1.5927e-012	1.73634e-012	2.04607e-012	2.21228e-012	2.18981e-012	
MinCout:	-2.25634e-014	FineR:	105	FineC:	130

