	CoarseC0	CoarseC10	CoarseC20	CoarseC30	CoarseC40	CoarseC50	CoarseC60	CoarseC70	CoarseC80	CoarseC90	CoarseC100	CoarseC110	CoarseC120	CoarseC130	CoarseC140	CoarseC150	CoarseC160	CoarseC170	CoarseC180	CoarseC190	CoarseC200	CoarseC210	CoarseC220	CoarseC230	CoarseC240	CoarseC250	
CoarseR0	-1.11864e-009	-1.07453e-009	-1.03265e-009	-9.96463e-010	-9.65253e-010	-9.3916e-010	-9.16728e-010	-8.96916e-010	-8.80011e-010	-8.65151e-010	-8.51946e-010	-8.40441e-010	-8.30536e-010	-8.21678e-010	-8.13848e-010	-8.06992e-010	-8.00811e-010	-7.95583e-010	-7.90739e-010	-7.86653e-010	-7.82823e-010	-7.79802e-010	-7.77051e-010	-7.74586e-010	-7.72857e-010	-7.70927e-010	
CoarseR10	-8.42097e-010	-7.9512e-010	-7.56354e-010	-7.22367e-010	-6.93521e-010	-6.69044e-010	-6.48138e-010	-6.29508e-010	-6.13268e-010	-5.99211e-010	-5.86738e-010	-5.7575e-010	-5.66137e-010	-5.57805e-010	-5.50216e-010	-5.43933e-010	-5.38114e-010	-5.33023e-010	-5.28916e-010	-5.25349e-010	-5.22567e-010	-5.19898e-010	-5.18028e-010	-5.16626e-010	-5.1538e-010	-5.14463e-010	
CoarseR20	-6.6462e-010	-6.18146e-010	-5.80813e-010	-5.49002e-010	-5.21854e-010	-4.98768e-010	-4.78581e-010	-4.61189e-010	-4.4578e-010	-4.32356e-010	-4.2037e-010	-4.10119e-010	-4.01241e-010	-3.93441e-010	-3.86944e-010	-3.81097e-010	-3.75941e-010	-3.7174e-010	-3.68089e-010	-3.65226e-010	-3.62782e-010	-3.60789e-010	-3.59421e-010	-3.58327e-010	-3.57707e-010	-3.57306e-010	
CoarseR30	-5.39774e-010	-4.94541e-010	-4.58834e-010	-4.28614e-010	-4.0287e-010	-3.80601e-010	-3.61422e-010	-3.44524e-010	-3.3005e-010	-3.17271e-010	-3.06206e-010	-2.96783e-010	-2.88421e-010	-2.81255e-010	-2.75118e-010	-2.69682e-010	-2.65379e-010	-2.61591e-010	-2.58526e-010	-2.56061e-010	-2.54015e-010	-2.52872e-010	-2.51871e-010	-2.51437e-010	-2.51455e-010	-2.51813e-010	
CoarseR40	-4.46852e-010	-4.02641e-010	-3.68253e-010	-3.39271e-010	-3.14289e-010	-2.93067e-010	-2.745e-010	-2.58529e-010	-2.44844e-010	-2.32902e-010	-2.224e-010	-2.13253e-010	-2.05451e-010	-1.98819e-010	-1.93251e-010	-1.88521e-010	-1.84517e-010	-1.81254e-010	-1.78759e-010	-1.76774e-010	-1.75558e-010	-1.74776e-010	-1.74586e-010	-1.74986e-010	-1.75828e-010	-1.77103e-010	
CoarseR50	-3.74822e-010	-3.31008e-010	-2.97986e-010	-2.70035e-010	-2.45828e-010	-2.25172e-010	-2.07552e-010	-1.92288e-010	-1.78979e-010	-1.67491e-010	-1.57504e-010	-1.49025e-010	-1.41846e-010	-1.35592e-010	-1.30485e-010	-1.2626e-010	-1.22799e-010	-1.20325e-010	-1.18465e-010	-1.17313e-010	-1.16588e-010	-1.16622e-010	-1.17218e-010	-1.18386e-010	-1.20186e-010	-1.22571e-010	
CoarseR60	-3.1636e-010	-2.74099e-010	-2.41688e-010	-2.14471e-010	-1.91025e-010	-1.71352e-010	-1.54343e-010	-1.39501e-010	-1.26665e-010	-1.15832e-010	-1.0631e-010	-9.81049e-011	-9.14324e-011	-8.57656e-011	-8.1152e-011	-7.75604e-011	-7.472e-011	-7.27367e-011	-7.13481e-011	-7.08782e-011	-7.10917e-011	-7.2083e-011	-7.35008e-011	-7.57984e-011	-7.86712e-011	-8.24924e-011	
CoarseR70	-2.68223e-010	-2.26791e-010	-1.95404e-010	-1.69001e-010	-1.46191e-010	-1.27065e-010	-1.10313e-010	-9.61137e-011	-8.36829e-011	-7.32748e-011	-6.4175e-011	-5.66034e-011	-5.03784e-011	-4.51751e-011	-4.11591e-011	-3.80553e-011	-3.58389e-011	-3.45075e-011	-3.39305e-011	-3.42489e-011	-3.5306e-011	-3.72713e-011	-4.0143e-011	-4.37441e-011	-4.83827e-011	-5.46219e-011	
CoarseR80	-2.27936e-010	-1.87334e-010	-1.56587e-010	-1.30763e-010	-1.08641e-010	-8.99067e-011	-7.38997e-011	-5.9898e-011	-4.80712e-011	-3.79238e-011	-2.94171e-011	-2.24546e-011	-1.64989e-011	-1.19341e-011	-8.23246e-012	-5.76003e-012	-4.03964e-012	-3.35842e-012	-3.75519e-012	-4.90399e-012	-7.28074e-012	-1.02173e-011	-1.45269e-011	-2.06319e-011	-2.88862e-011	-3.68007e-011	
CoarseR90	-1.93178e-010	-1.53245e-010	-1.23353e-010	-9.7888e-011	-7.61467e-011	-5.7977e-011	-4.21853e-011	-2.87606e-011	-1.73304e-011	-7.58354e-012	4.63542e-013	7.33259e-012	1.2661e-011	1.6752e-011	1.96362e-011	2.16286e-011	2.25294e-011	2.23941e-011	2.13243e-011	1.88271e-011	1.54769e-011	1.0424e-011	2.45557e-012	-5.91622e-012	-1.38023e-011	-2.21054e-011	
CoarseR100	-1.63333e-010	-1.24209e-010	-9.4646e-011	-6.97243e-011	-4.84922e-011	-3.05166e-011	-1.50993e-011	-2.03997e-012	9.13073e-012	1.84316e-011	2.60427e-011	3.24647e-011	3.73341e-011	4.0961e-011	4.33673e-011	4.46792e-011	4.47485e-011	4.37328e-011	4.15038e-011	3.76917e-011	3.17716e-011	2.30891e-011	1.49197e-011	6.15484e-012	-2.23618e-012	-9.98804e-012	
CoarseR110	-1.36999e-010	-9.87134e-011	-6.96942e-011	-4.50777e-011	-2.40277e-011	-6.5797e-012	8.60926e-012	2.1598e-011	3.21982e-011	4.12495e-011	4.8417e-011	5.43416e-011	5.87517e-011	6.20695e-011	6.37873e-011	6.42676e-011	6.36491e-011	6.16347e-011	5.76878e-011	5.1234e-011	4.24084e-011	3.38054e-011	2.48386e-011	1.65335e-011	8.73006e-012	1.22988e-012	
CoarseR120	-1.13533e-010	-7.57183e-011	-4.6983e-011	-2.28972e-011	-2.1877e-012	1.48718e-011	2.9854e-011	4.24083e-011	5.27835e-011	6.15684e-011	6.8431e-011	7.39311e-011	7.80034e-011	8.04485e-011	8.16836e-011	8.14717e-011	7.98131e-011	7.62597e-011	6.93343e-011	6.07265e-011	5.1866e-011	4.27979e-011	3.4286e-011	2.60718e-011	1.87284e-011	1.17103e-011	
CoarseR130	-9.27853e-011	-5.53616e-011	-2.71533e-011	-3.22342e-012	1.71336e-011	3.43165e-011	4.87387e-011	6.10845e-011	7.13292e-011	7.96505e-011	8.64061e-011	9.12274e-011	9.49822e-011	9.67598e-011	9.72825e-011	9.6184e-011	9.33387e-011	8.69062e-011	7.81757e-011	6.90236e-011	5.97424e-011	5.11339e-011	4.30652e-011	3.55418e-011	2.83482e-011	2.14803e-011	
CoarseR140	-7.4102e-011	-3.69219e-011	-8.98874e-012	1.47791e-011	3.49303e-011	5.1593e-011	6.61411e-011	7.80535e-011	8.80229e-011	9.60692e-011	1.0232e-010	1.07005e-010	1.09908e-010	1.11328e-010	1.11153e-010	1.0884e-010	1.03696e-010	9.48027e-011	8.57031e-011	7.63242e-011	6.73245e-011	5.92251e-011	5.13249e-011	4.4119e-011	3.72707e-011	3.07861e-011	
CoarseR150	-5.72225e-011	-2.03783e-011	7.20353e-012	3.08032e-011	5.07962e-011	6.73944e-011	8.1528e-011	9.33386e-011	1.03028e-010	1.10787e-010	1.16742e-010	1.2106e-010	1.23621e-010	1.24521e-010	1.23097e-010	1.19604e-010	1.11017e-010	1.01953e-010	9.23185e-011	8.34198e-011	7.4734e-011	6.68254e-011	5.92478e-011	5.22586e-011	4.57982e-011	3.95147e-011	
CoarseR160	-4.18901e-011	-5.38329e-012	2.22936e-011	4.54024e-011	6.53144e-011	8.18749e-011	9.57258e-011	1.07468e-010	1.16879e-010	1.24334e-010	1.29945e-010	1.33959e-010	1.35972e-010	1.35975e-010	1.33657e-010	1.26811e-010	1.17919e-010	1.08103e-010	9.88086e-011	9.01145e-011	8.17977e-011	7.42352e-011	6.70491e-011	6.00671e-011	5.38421e-011	4.78062e-011	
CoarseR170	-2.78152e-011	8.38382e-012	3.56862e-011	5.89696e-011	7.87099e-011	9.50556e-011	1.09021e-010	1.20302e-010	1.29596e-010	1.36894e-010	1.42362e-010	1.45657e-010	1.46953e-010	1.46429e-010	1.42289e-010	1.33418e-010	1.23942e-010	1.1435e-010	1.05215e-010	9.66875e-011	8.87552e-011	8.14238e-011	7.42752e-011	6.77223e-011	6.15425e-011	5.57469e-011	
CoarseR180	-1.51097e-011	2.09876e-011	4.81853e-011	7.14524e-011	9.09901e-011	1.07474e-010	1.21176e-010	1.32316e-010	1.41489e-010	1.48681e-010	1.53642e-010	1.56556e-010	1.57314e-010	1.55529e-010	1.48539e-010	1.39696e-010	1.29652e-010	1.20247e-010	1.11493e-010	1.03365e-010	9.54723e-011	8.81736e-011	8.12784e-011	7.49612e-011	6.90342e-011	6.33443e-011	
CoarseR190	-3.28852e-012	3.26774e-011	6.00535e-011	8.27995e-011	1.02272e-010	1.18687e-010	1.32285e-010	1.43507e-010	1.52372e-010	1.59406e-010	1.63814e-010	1.6657e-010	1.66435e-010	1.63326e-010	1.54633e-010	1.4502e-010	1.35339e-010	1.26177e-010	1.17434e-010	1.0972e-010	1.0207e-010	9.52046e-011	8.83612e-011	8.21596e-011	7.63097e-011	7.08692e-011	
CoarseR200	7.56985e-012	4.33789e-011	7.06575e-011	9.35378e-011	1.13009e-010	1.29183e-010	1.42708e-010	1.5401e-010	1.62554e-010	1.69217e-010	1.73659e-010	1.75687e-010	1.75217e-010	1.69175e-010	1.60331e-010	1.50158e-010	1.40885e-010	1.31898e-010	1.23595e-010	1.15945e-010	1.08705e-010	1.01735e-010	9.53482e-011	8.92274e-011	8.34798e-011	7.81633e-011	
CoarseR210	1.75634e-011	5.32949e-011	8.05251e-011	1.0342e-010	1.22975e-010	1.38879e-010	1.52522e-010	1.63515e-010	1.72118e-010	1.78631e-010	1.82541e-010	1.8421e-010	1.82655e-010	1.74739e-010	1.65509e-010	1.55557e-010	1.46142e-010	1.3761e-010	1.29524e-010	1.21945e-010	1.1479e-010	1.08082e-010	1.01803e-010	9.59585e-011	9.03314e-011	8.49349e-011	
CoarseR220	2.67599e-011	6.25975e-011	8.98294e-011	1.12687e-010	1.3202e-010	1.48036e-010	1.61581e-010	1.72626e-010	1.80905e-010	1.8728e-010	1.90837e-010	1.9199e-010	1.88982e-010	1.80298e-010	1.70282e-010	1.60772e-010	1.51768e-010	1.43267e-010	1.3529e-010	1.27955e-010	1.20902e-010	1.14464e-010	1.08303e-010	1.02552e-010	9.70414e-011	9.19244e-011	
CoarseR230	3.55235e-011	7.12669e-011	9.83143e-011	1.21179e-010	1.40648e-010	1.56766e-010	1.70218e-010	1.80956e-010	1.89276e-010	1.95498e-010	1.99083e-010	1.99505e-010	1.94203e-010	1.85398e-010	1.75355e-010	1.6606e-010	1.57108e-010	1.48727e-010	1.41183e-010	1.33965e-010	1.27184e-010	1.2064e-010	1.14575e-010	1.08966e-010	1.03786e-010	9.8588e-011	
CoarseR240	4.33665e-011	7.91231e-011	1.06406e-010	1.29225e-010	1.48573e-010	1.64628e-010	1.77978e-010	1.88817e-010	1.97191e-010	2.03071e-010	2.06113e-010	2.06211e-010	1.9948e-010	1.90112e-010	1.80281e-010	1.71256e-010	1.62393e-010	1.54281e-010	1.46812e-010	1.39901e-010	1.32855e-010	1.26806e-010	1.20889e-010	1.15357e-010	1.10095e-010	1.05058e-010	
CoarseR250	5.07492e-011	8.63694e-011	1.13428e-010	1.36347e-010	1.5616e-010	1.72254e-010	1.85483e-010	1.96385e-010	2.04619e-010	2.10158e-010	2.13267e-010	2.12473e-010	2.04494e-010	1.94907e-010	1.85358e-010	1.76205e-010	1.67597e-010	1.59751e-010	1.52431e-010	1.45575e-010	1.38832e-010	1.32742e-010	1.26898e-010	1.21351e-010	1.16189e-010	1.11092e-010	
MinCout:	4.63542e-013	CoarseR:	90	CoarseC:	100

	CoarseC40	CoarseC41	CoarseC42	CoarseC43	CoarseC44	CoarseC45	CoarseC46	CoarseC47	CoarseC48	CoarseC49	CoarseC50	CoarseC51	CoarseC52	CoarseC53	CoarseC54	CoarseC55	CoarseC56	CoarseC57	CoarseC58	CoarseC59	CoarseC60	
CoarseR100	-4.8306e-011	-4.66415e-011	-4.48032e-011	-4.28252e-011	-4.11284e-011	-3.91668e-011	-3.73459e-011	-3.56693e-011	-3.38437e-011	-3.21832e-011	-3.05006e-011	-2.8836e-011	-2.71694e-011	-2.58137e-011	-2.39941e-011	-2.26576e-011	-2.09826e-011	-1.96228e-011	-1.7963e-011	-1.65994e-011	-1.50805e-011	
CoarseR101	-4.57215e-011	-4.40574e-011	-4.20549e-011	-4.02203e-011	-3.83806e-011	-3.65628e-011	-3.47424e-011	-3.30869e-011	-3.12646e-011	-2.956e-011	-2.77545e-011	-2.6403e-011	-2.45686e-011	-2.30722e-011	-2.12301e-011	-1.9894e-011	-1.82417e-011	-1.68601e-011	-1.52009e-011	-1.40211e-011	-1.24895e-011	
CoarseR102	-4.31224e-011	-4.14586e-011	-3.94563e-011	-3.76173e-011	-3.59476e-011	-3.39651e-011	-3.23124e-011	-3.06117e-011	-2.88082e-011	-2.71491e-011	-2.54673e-011	-2.38276e-011	-2.21619e-011	-2.0454e-011	-1.88042e-011	-1.72774e-011	-1.59596e-011	-1.44553e-011	-1.29419e-011	-1.15983e-011	-9.91609e-012	
CoarseR103	-4.06691e-011	-3.88403e-011	-3.70304e-011	-3.5193e-011	-3.33568e-011	-3.15356e-011	-2.96967e-011	-2.80424e-011	-2.61939e-011	-2.45593e-011	-2.28982e-011	-2.12146e-011	-1.95494e-011	-1.81959e-011	-1.63778e-011	-1.48578e-011	-1.33494e-011	-1.19908e-011	-1.03328e-011	-8.98967e-012	-7.62386e-012	
CoarseR104	-3.82296e-011	-3.63958e-011	-3.45651e-011	-3.27533e-011	-3.10586e-011	-2.9098e-011	-2.74214e-011	-2.56034e-011	-2.37573e-011	-2.20784e-011	-2.04182e-011	-1.89215e-011	-1.72571e-011	-1.57412e-011	-1.3944e-011	-1.25675e-011	-1.09164e-011	-9.55809e-012	-7.90055e-012	-6.53843e-012	-5.19273e-012	
CoarseR105	-3.57668e-011	-3.40822e-011	-3.21074e-011	-3.01042e-011	-2.84358e-011	-2.66415e-011	-2.47995e-011	-2.31249e-011	-2.1323e-011	-1.96441e-011	-1.79843e-011	-1.63015e-011	-1.48034e-011	-1.32856e-011	-1.14909e-011	-1.01351e-011	-8.46247e-012	-7.29555e-012	-5.44773e-012	-4.08603e-012	-2.74205e-012	
CoarseR106	-3.32727e-011	-3.16333e-011	-2.96362e-011	-2.79888e-011	-2.59873e-011	-2.41685e-011	-2.24962e-011	-2.0822e-011	-1.90222e-011	-1.73439e-011	-1.56847e-011	-1.41686e-011	-1.25052e-011	-1.10102e-011	-9.19377e-012	-7.83874e-012	-6.16671e-012	-4.80936e-012	-3.15317e-012	-1.81172e-012	-4.48009e-013	
CoarseR107	-3.09998e-011	-2.91452e-011	-2.73375e-011	-2.55019e-011	-2.38344e-011	-2.18749e-011	-2.01786e-011	-1.8505e-011	-1.67046e-011	-1.50481e-011	-1.33894e-011	-1.1876e-011	-1.00235e-011	-8.5288e-012	-6.88229e-012	-5.38031e-012	-3.85781e-012	-2.52119e-012	-8.65572e-013	4.95309e-013	1.83842e-012	
CoarseR108	-2.86876e-011	-2.70006e-011	-2.50039e-011	-2.31944e-011	-2.13575e-011	-1.95431e-011	-1.78937e-011	-1.61963e-011	-1.42314e-011	-1.25752e-011	-1.08954e-011	-9.5705e-012	-7.74116e-012	-6.39146e-012	-4.59808e-012	-3.22376e-012	-1.55272e-012	-1.96201e-013	1.45875e-012	2.6288e-012	3.97098e-012	
CoarseR109	-2.63638e-011	-2.47031e-011	-2.27035e-011	-2.07043e-011	-1.90352e-011	-1.72213e-011	-1.55724e-011	-1.38993e-011	-1.20772e-011	-1.04232e-011	-8.76552e-012	-7.0842e-012	-5.42218e-012	-4.07318e-012	-2.25866e-012	-7.60021e-013	5.94523e-013	1.92998e-012	3.58433e-012	4.94438e-012	6.28581e-012	
CoarseR110	-2.40277e-011	-2.23675e-011	-2.05352e-011	-1.87268e-011	-1.68927e-011	-1.48873e-011	-1.32169e-011	-1.15666e-011	-9.76787e-012	-8.2364e-012	-6.60231e-012	-4.92152e-012	-3.26019e-012	-1.74462e-012	9.0194e-014	1.39992e-012	2.92101e-012	4.27643e-012	5.90966e-012	7.26883e-012	8.60989e-012	
CoarseR111	-2.18459e-011	-2.00196e-011	-1.81877e-011	-1.64027e-011	-1.45442e-011	-1.25408e-011	-1.08932e-011	-9.38917e-012	-7.56915e-012	-5.9149e-012	-4.25839e-012	-2.74684e-012	-1.0862e-012	4.07235e-013	2.22056e-012	3.57181e-012	5.24164e-012	6.42637e-012	8.09985e-012	9.43813e-012	1.07581e-011	
CoarseR112	-1.95087e-011	-1.78261e-011	-1.58279e-011	-1.41878e-011	-1.23772e-011	-1.05407e-011	-8.70297e-012	-7.05391e-012	-5.40255e-012	-3.72675e-012	-2.07098e-012	-3.91106e-013	1.24734e-012	2.59412e-012	4.23731e-012	5.75575e-012	7.44568e-012	8.58876e-012	1.02435e-011	1.15998e-011	1.29385e-011	
CoarseR113	-1.71594e-011	-1.55006e-011	-1.36696e-011	-1.18394e-011	-1.00289e-011	-8.19301e-012	-6.54652e-012	-5.04331e-012	-3.05563e-012	-1.38008e-012	1.06464e-013	1.78592e-012	3.44548e-012	4.76991e-012	6.58206e-012	8.10023e-012	9.4516e-012	1.07845e-011	1.24571e-011	1.36236e-011	1.52811e-011	
CoarseR114	-1.51576e-011	-1.34741e-011	-1.15013e-011	-9.64533e-012	-7.981e-012	-6.00098e-012	-4.33182e-012	-2.70701e-012	-8.65017e-013	6.41112e-013	2.44246e-012	3.9527e-012	5.61243e-012	6.95686e-012	8.76818e-012	1.01171e-011	1.17861e-011	1.29683e-011	1.46205e-011	1.59766e-011	1.73152e-011	
CoarseR115	-1.27831e-011	-1.09559e-011	-9.27131e-012	-7.2964e-012	-5.60837e-012	-3.62863e-012	-1.98344e-012	-4.81329e-013	1.31397e-012	3.01132e-012	4.49606e-012	6.15291e-012	7.81149e-012	9.34681e-012	1.09875e-011	1.23354e-011	1.39822e-011	1.51651e-011	1.68151e-011	1.81511e-011	1.95081e-011	
CoarseR116	-1.07333e-011	-8.90658e-012	-6.90984e-012	-5.24849e-012	-3.60863e-012	-1.60545e-012	6.22923e-014	1.56369e-012	3.55041e-012	5.20162e-012	6.85517e-012	8.19489e-012	1.0022e-011	1.13667e-011	1.30068e-011	1.45233e-011	1.60205e-011	1.72027e-011	1.88325e-011	2.02085e-011	2.16936e-011	
CoarseR117	-8.52981e-012	-6.67849e-012	-5.01996e-012	-3.04574e-012	-1.38276e-012	4.28449e-013	2.09566e-012	3.76493e-012	5.58205e-012	7.23342e-012	8.71664e-012	1.02252e-011	1.18824e-011	1.33961e-011	1.50559e-011	1.6552e-011	1.80478e-011	1.92294e-011	2.08779e-011	2.2234e-011	2.374e-011	
CoarseR118	-6.4824e-012	-4.65606e-012	-2.97357e-012	-9.99749e-013	6.62762e-013	2.64129e-012	4.13981e-012	5.80855e-012	7.79486e-012	9.29908e-012	1.09511e-011	1.26284e-011	1.41153e-011	1.54362e-011	1.72449e-011	1.87827e-011	2.00881e-011	2.16072e-011	2.31061e-011	2.42701e-011	2.57543e-011	
CoarseR119	-4.23216e-012	-2.40609e-012	-7.48721e-013	1.05714e-012	2.74246e-012	4.69693e-012	6.53359e-012	7.863e-012	9.84898e-012	1.13293e-011	1.3004e-011	1.46807e-011	1.63138e-011	1.75076e-011	1.9295e-011	2.08101e-011	2.21567e-011	2.36557e-011	2.51327e-011	2.63169e-011	2.78223e-011	
CoarseR120	-2.16281e-012	-5.08047e-013	1.31901e-012	3.12132e-012	4.9534e-012	6.59167e-012	8.42789e-012	1.00955e-011	1.17417e-011	1.33921e-011	1.48951e-011	1.65502e-011	1.82056e-011	1.97163e-011	2.13534e-011	2.26775e-011	2.41938e-011	2.55444e-011	2.71909e-011	2.83524e-011	2.98759e-011	
MinCout:	6.22923e-014	CoarseR:	116	CoarseC:	46

	FineC0	FineC10	FineC20	FineC30	FineC40	FineC50	FineC60	FineC70	FineC80	FineC90	FineC100	FineC110	FineC120	FineC130	FineC140	FineC150	FineC160	FineC170	FineC180	FineC190	FineC200	FineC210	FineC220	FineC230	FineC240	FineC250	
FineR0	-1.38716e-010	-1.11557e-010	-9.47594e-011	-8.24793e-011	-7.28929e-011	-6.54631e-011	-5.93901e-011	-5.43799e-011	-5.01355e-011	-4.64733e-011	-4.35936e-011	-4.08761e-011	-3.84172e-011	-3.66247e-011	-3.46235e-011	-3.2951e-011	-3.17347e-011	-3.02094e-011	-2.91201e-011	-2.80742e-011	-2.71549e-011	-2.62344e-011	-2.53344e-011	-2.45447e-011	-2.39558e-011	-2.3168e-011	
FineR10	-1.2213e-010	-9.52718e-011	-7.86747e-011	-6.63772e-011	-5.69376e-011	-4.95155e-011	-4.36095e-011	-3.82513e-011	-3.4179e-011	-3.07144e-011	-2.7839e-011	-2.50998e-011	-2.28334e-011	-2.069e-011	-1.9022e-011	-1.73749e-011	-1.58279e-011	-1.46163e-011	-1.33852e-011	-1.23406e-011	-1.14015e-011	-1.05037e-011	-9.564e-012	-8.96046e-012	-8.20977e-012	-7.58892e-012	
FineR20	-1.14724e-010	-8.78331e-011	-7.13818e-011	-5.90584e-011	-4.98755e-011	-4.22399e-011	-3.61786e-011	-3.11791e-011	-2.71115e-011	-2.36256e-011	-2.05867e-011	-1.78506e-011	-1.55898e-011	-1.3446e-011	-1.17825e-011	-1.00927e-011	-8.74045e-012	-7.55151e-012	-6.29991e-012	-5.25675e-012	-4.17031e-012	-3.42263e-012	-2.52422e-012	-1.73404e-012	-1.13178e-012	-3.60456e-013	
FineR30	-1.1056e-010	-8.38527e-011	-6.72365e-011	-5.47326e-011	-4.53638e-011	-3.81176e-011	-3.2032e-011	-2.70362e-011	-2.28044e-011	-1.94885e-011	-1.62844e-011	-1.3718e-011	-1.14363e-011	-9.31753e-012	-7.65456e-012	-5.96752e-012	-4.6146e-012	-3.40747e-012	-2.02912e-012	-1.13561e-012	-5.00427e-014	8.46328e-013	1.61455e-012	2.38359e-012	3.15346e-012	3.75611e-012	
FineR40	-1.07855e-010	-8.11906e-011	-6.45881e-011	-5.22761e-011	-4.26876e-011	-3.52817e-011	-2.93883e-011	-2.42038e-011	-2.01171e-011	-1.68517e-011	-1.3649e-011	-1.10621e-011	-8.7818e-012	-6.64178e-012	-5.00285e-012	-3.16986e-012	-1.81849e-012	-6.11465e-013	4.7022e-013	1.67992e-012	2.59478e-012	3.51093e-012	4.44888e-012	5.19727e-012	5.79828e-012	6.3977e-012	
FineR50	-1.05964e-010	-7.91095e-011	-6.25058e-011	-5.02043e-011	-4.09752e-011	-3.3376e-011	-2.73238e-011	-2.24982e-011	-1.8222e-011	-1.47686e-011	-1.17331e-011	-9.17153e-012	-6.89215e-012	-4.75313e-012	-3.11522e-012	-1.45122e-012	-7.92488e-014	1.27407e-012	2.3341e-012	3.56445e-012	4.47886e-012	5.39456e-012	6.31206e-012	6.89114e-012	7.68087e-012	8.27993e-012	
FineR60	-1.04331e-010	-7.77637e-011	-6.10032e-011	-4.88607e-011	-3.94459e-011	-3.19025e-011	-2.59645e-011	-2.09991e-011	-1.6749e-011	-1.32713e-011	-1.04043e-011	-7.65216e-012	-5.39695e-012	-3.42714e-012	-1.62113e-012	-1.05175e-013	1.43556e-012	2.78841e-012	3.82676e-012	4.88831e-012	5.80245e-012	6.88656e-012	7.48489e-012	8.23273e-012	9.00156e-012	9.62304e-012	
FineR70	-1.03164e-010	-7.6474e-011	-6.00089e-011	-4.77086e-011	-3.8322e-011	-3.09194e-011	-2.48427e-011	-2.00203e-011	-1.57719e-011	-1.22957e-011	-9.26243e-012	-6.72474e-012	-4.42466e-012	-2.30947e-012	-4.60019e-013	1.03327e-012	2.53043e-012	3.75683e-012	4.98446e-012	6.04529e-012	6.93839e-012	7.85343e-012	8.76977e-012	9.53753e-012	1.01383e-011	1.07368e-011	
FineR80	-1.02384e-010	-7.56911e-011	-5.90756e-011	-4.69387e-011	-3.736e-011	-2.99845e-011	-2.39089e-011	-1.89214e-011	-1.48146e-011	-1.13643e-011	-8.33156e-012	-5.74893e-012	-3.49466e-012	-1.35748e-012	3.00599e-013	1.7718e-012	3.33342e-012	4.68559e-012	5.72299e-012	6.9739e-012	7.86617e-012	8.80127e-012	9.7182e-012	1.03169e-011	1.08946e-011	1.16847e-011	
FineR90	-1.01636e-010	-7.49156e-011	-5.84579e-011	-4.61949e-011	-3.67805e-011	-2.92138e-011	-2.33077e-011	-1.82958e-011	-1.40731e-011	-1.05755e-011	-7.5907e-012	-5.00778e-012	-2.73139e-012	-7.85862e-013	1.2094e-012	2.72407e-012	4.2421e-012	5.44654e-012	6.67386e-012	7.71288e-012	8.62619e-012	9.52059e-012	1.02871e-011	1.10545e-011	1.1803e-011	1.24437e-011	
FineR100	-1.01044e-010	-7.43663e-011	-5.77473e-011	-4.56183e-011	-3.62008e-011	-2.86386e-011	-2.27306e-011	-1.77456e-011	-1.35229e-011	-9.85573e-012	-6.99376e-012	-4.45755e-012	-2.15843e-012	-2.13316e-013	1.78157e-012	3.29594e-012	4.64417e-012	6.01694e-012	7.07503e-012	8.11355e-012	9.36572e-012	1.00895e-011	1.10264e-011	1.16247e-011	1.23928e-011	1.2992e-011	
FineR110	-1.0061e-010	-7.37801e-011	-5.71854e-011	-4.50271e-011	-3.54793e-011	-2.82503e-011	-2.19852e-011	-1.71913e-011	-1.31142e-011	-9.47242e-012	-6.44155e-012	-4.05131e-012	-1.62997e-012	3.3745e-013	2.16343e-012	3.84644e-012	5.19463e-012	6.56733e-012	7.79425e-012	8.68405e-012	9.74663e-012	1.06397e-011	1.14059e-011	1.2173e-011	1.2941e-011	1.35616e-011	
FineR120	-1.00093e-010	-7.34124e-011	-5.6959e-011	-4.45041e-011	-3.52609e-011	-2.78618e-011	-2.18178e-011	-1.66147e-011	-1.27287e-011	-9.08776e-012	-6.05758e-012	-3.52309e-012	-1.2244e-012	9.10967e-013	2.54542e-012	4.05883e-012	5.55459e-012	6.94831e-012	8.17499e-012	9.21409e-012	1.01269e-011	1.1041e-011	1.17858e-011	1.27234e-011	1.33219e-011	1.39214e-011	
FineR130	-9.97344e-011	-7.30232e-011	-5.64033e-011	-4.42799e-011	-3.47033e-011	-2.73083e-011	-2.12378e-011	-1.64207e-011	-1.21751e-011	-8.70416e-012	-5.69797e-012	-3.11625e-012	-8.64262e-013	1.10249e-012	3.09677e-012	4.58844e-012	6.12699e-012	7.3296e-012	8.55701e-012	9.42586e-012	1.06778e-011	1.14214e-011	1.21674e-011	1.29343e-011	1.3702e-011	1.43029e-011	
FineR140	-9.93325e-011	-7.26264e-011	-5.60436e-011	-4.38885e-011	-3.45069e-011	-2.69481e-011	-2.1043e-011	-1.60604e-011	-1.18148e-011	-8.48669e-012	-5.31388e-012	-2.77875e-012	-4.81135e-013	1.48522e-012	3.28786e-012	4.97053e-012	6.31799e-012	7.71114e-012	8.74764e-012	9.78539e-012	1.07194e-011	1.18021e-011	1.27171e-011	1.33148e-011	1.40627e-011	1.44911e-011	
FineR150	-9.92974e-011	-7.22966e-011	-5.5846e-011	-4.35555e-011	-3.42853e-011	-2.67534e-011	-2.08241e-011	-1.56984e-011	-1.16228e-011	-8.14968e-012	-5.09728e-012	-2.56377e-012	-1.20544e-013	1.84561e-012	3.50154e-012	5.16134e-012	6.67796e-012	7.88103e-012	9.1074e-012	1.01666e-011	1.1079e-011	1.19925e-011	1.28875e-011	1.36543e-011	1.42723e-011	1.48714e-011	
FineR160	-9.90856e-011	-7.20674e-011	-5.54804e-011	-4.33275e-011	-3.41159e-011	-2.65587e-011	-2.04616e-011	-1.55048e-011	-1.14267e-011	-7.95688e-012	-4.90479e-012	-2.20287e-012	2.62874e-013	2.03753e-012	3.84e-012	5.37481e-012	6.8911e-012	8.26288e-012	9.29825e-012	1.05481e-011	1.14386e-011	1.2332e-011	1.30978e-011	1.38659e-011	1.44626e-011	1.52113e-011	
FineR170	-9.87373e-011	-7.18981e-011	-5.53166e-011	-4.31624e-011	-3.37258e-011	-2.617e-011	-2.02673e-011	-1.52867e-011	-1.10678e-011	-7.59533e-012	-4.71223e-012	-1.98764e-012	2.6372e-013	2.39817e-012	4.05345e-012	5.5662e-012	7.08233e-012	8.45396e-012	9.48917e-012	1.07172e-011	1.16293e-011	1.25427e-011	1.32868e-011	1.42255e-011	1.46529e-011	1.5421e-011	
FineR180	-9.85681e-011	-7.16987e-011	-5.50848e-011	-4.29343e-011	-3.35563e-011	-2.59724e-011	-2.00978e-011	-1.51173e-011	-1.08734e-011	-7.37806e-012	-4.3752e-012	-1.81831e-012	4.55794e-013	2.56747e-012	4.2451e-012	5.90475e-012	7.27363e-012	8.62319e-012	9.84923e-012	1.09081e-011	1.18201e-011	1.27334e-011	1.34574e-011	1.43947e-011	1.48433e-011	1.56113e-011	
FineR190	-9.83235e-011	-7.14619e-011	-5.5055e-011	-4.27648e-011	-3.33652e-011	-2.59458e-011	-1.9738e-011	-1.49234e-011	-1.06799e-011	-7.18647e-012	-4.1825e-012	-1.62591e-012	8.16379e-013	2.61275e-012	4.41441e-012	6.09627e-012	7.44292e-012	8.8144e-012	1.00412e-011	1.10991e-011	1.2011e-011	1.29242e-011	1.38187e-011	1.45853e-011	1.52046e-011	1.58017e-011	
FineR200	-9.81969e-011	-7.14977e-011	-5.48854e-011	-4.25737e-011	-3.31693e-011	-2.57788e-011	-1.97369e-011	-1.4728e-011	-1.06551e-011	-7.01697e-012	-3.98971e-012	-1.45649e-012	8.16937e-013	2.97348e-012	4.77523e-012	6.26562e-012	7.80391e-012	9.17547e-012	1.02312e-011	1.10992e-011	1.23506e-011	1.30934e-011	1.40079e-011	1.46264e-011	1.53739e-011	1.61632e-011	
FineR210	-9.79634e-011	-7.12695e-011	-5.47229e-011	-4.24041e-011	-3.29997e-011	-2.56066e-011	-1.95424e-011	-1.45365e-011	-1.05096e-011	-6.8238e-012	-3.79654e-012	-1.24155e-012	1.00921e-012	3.14292e-012	4.79813e-012	6.28828e-012	7.99452e-012	9.17577e-012	1.04225e-011	1.1481e-011	1.23508e-011	1.32856e-011	1.40295e-011	1.47957e-011	1.55628e-011	1.61632e-011	
FineR220	-9.79948e-011	-7.11e-011	-5.45193e-011	-4.23711e-011	-3.28051e-011	-2.54152e-011	-1.9349e-011	-1.43668e-011	-1.02929e-011	-6.82294e-012	-3.62808e-012	-1.07204e-012	1.20092e-012	3.14346e-012	4.98946e-012	6.64857e-012	7.99491e-012	9.36614e-012	1.04228e-011	1.14812e-011	1.25621e-011	1.34535e-011	1.42002e-011	1.49666e-011	1.57338e-011	1.63521e-011	
FineR230	-9.76263e-011	-7.11286e-011	-5.43282e-011	-4.2039e-011	-3.28004e-011	-2.53859e-011	-1.93209e-011	-1.43399e-011	-1.02669e-011	-6.65422e-012	-3.60363e-012	-1.0482e-012	1.20156e-012	3.16628e-012	5.15841e-012	6.67056e-012	8.18609e-012	9.36544e-012	1.05919e-011	1.16711e-011	1.27312e-011	1.36242e-011	1.43896e-011	1.51558e-011	1.57339e-011	1.63521e-011	
FineR240	-9.76247e-011	-7.09305e-011	-5.43212e-011	-4.20375e-011	-3.26044e-011	-2.50515e-011	-1.91513e-011	-1.41727e-011	-9.93057e-012	-6.46091e-012	-3.60281e-012	-8.79389e-013	1.39376e-012	3.52678e-012	5.15894e-012	6.84005e-012	8.35557e-012	9.5576e-012	1.07613e-011	1.18416e-011	1.27315e-011	1.36661e-011	1.43897e-011	1.53267e-011	1.59229e-011	1.65427e-011	
FineR250	-9.75805e-011	-7.08915e-011	-5.43196e-011	-4.1842e-011	-3.24393e-011	-2.50478e-011	-1.89827e-011	-1.41703e-011	-9.95363e-012	-6.29218e-012	-3.26525e-012	-8.78642e-013	1.54e-012	3.52741e-012	5.49753e-012	7.00906e-012	8.37725e-012	9.57897e-012	1.09523e-011	1.18624e-011	1.29238e-011	1.38139e-011	1.45805e-011	1.53466e-011	1.61136e-011	1.65215e-011	
MinCout:	-5.00427e-014	FineR:	30	FineC:	200

	FineC120	FineC121	FineC122	FineC123	FineC124	FineC125	FineC126	FineC127	FineC128	FineC129	FineC130	FineC131	FineC132	FineC133	FineC134	FineC135	FineC136	FineC137	FineC138	FineC139	FineC140	
FineR100	-2.32681e-012	-1.84387e-012	-1.72038e-012	-1.57435e-012	-1.2596e-012	-1.11346e-012	-9.6727e-013	-8.21031e-013	-5.28406e-013	-3.59711e-013	-2.35626e-013	1.01831e-013	2.48332e-013	3.72632e-013	5.63662e-013	8.56858e-013	1.00356e-012	1.15032e-012	1.29713e-012	1.6347e-012	1.61257e-012	
FineR101	-2.15818e-012	-1.84387e-012	-1.72056e-012	-1.38324e-012	-1.23717e-012	-1.09105e-012	-7.76207e-013	-6.29982e-013	-5.06056e-013	-3.59711e-013	-4.46199e-014	1.01831e-013	2.48332e-013	3.94883e-013	7.10201e-013	8.79069e-013	1.02576e-012	1.34123e-012	1.48802e-012	1.44371e-012	1.5906e-012	
FineR102	-2.1584e-012	-1.84385e-012	-1.50679e-012	-1.40584e-012	-1.23703e-012	-9.44893e-013	-7.98684e-013	-4.61302e-013	-3.3741e-013	-1.68691e-013	-2.231e-014	1.24121e-013	2.70602e-013	5.85845e-013	7.32432e-013	8.79069e-013	1.19448e-012	1.34123e-012	1.31905e-012	1.46587e-012	1.78147e-012	
FineR103	-1.98975e-012	-1.84385e-012	-1.69789e-012	-1.38322e-012	-1.21458e-012	-1.06851e-012	-7.76203e-013	-4.61302e-013	-3.15021e-013	-1.91046e-013	-2.23297e-014	2.70556e-013	4.17076e-013	7.76808e-013	8.79005e-013	8.78918e-013	1.02558e-012	1.34102e-012	1.48779e-012	1.65676e-012	1.8036e-012	
FineR104	-1.96721e-012	-1.84404e-012	-1.52923e-012	-1.40584e-012	-1.06848e-012	-9.22367e-013	-7.76203e-013	-6.29989e-013	-1.4635e-013	0	1.46401e-013	4.61572e-013	4.39277e-013	5.85803e-013	7.32379e-013	1.04774e-012	1.21651e-012	1.34116e-012	1.48794e-012	1.65676e-012	1.97235e-012	
FineR105	-1.79856e-012	-1.65267e-012	-1.50673e-012	-1.19207e-012	-1.04603e-012	-8.99933e-013	-7.76203e-013	-4.61295e-013	-3.15025e-013	-1.68705e-013	1.46375e-013	3.15116e-013	4.39277e-013	5.85803e-013	9.01111e-013	1.04774e-012	1.21664e-012	1.5099e-012	1.65669e-012	1.8255e-012	1.97255e-012	
FineR106	-1.82128e-012	-1.48416e-012	-1.3607e-012	-1.19207e-012	-1.06859e-012	-7.53761e-013	-5.851e-013	-4.61343e-013	-1.4634e-013	2.23548e-014	1.6871e-013	3.15116e-013	6.30293e-013	7.76805e-013	9.23367e-013	1.23872e-012	1.21664e-012	1.5321e-012	1.67887e-012	1.65669e-012	1.97229e-012	
FineR107	-1.79848e-012	-1.6299e-012	-1.3607e-012	-1.21467e-012	-8.54895e-013	-7.3125e-013	-5.851e-013	-2.92629e-013	-1.4634e-013	2.23548e-014	1.4639e-013	4.83832e-013	6.08061e-013	7.54607e-013	1.0921e-012	1.23872e-012	1.38538e-012	1.5321e-012	1.70085e-012	1.84762e-012	1.99444e-012	
FineR108	-1.79848e-012	-1.63006e-012	-1.33799e-012	-1.19201e-012	-1.04598e-012	-7.31196e-013	-4.16449e-013	-2.70229e-013	2.23799e-014	1.91085e-013	3.3746e-013	4.83886e-013	8.2131e-013	9.45634e-013	1.09222e-012	1.0921e-012	1.55429e-012	1.53207e-012	1.67883e-012	1.82563e-012	2.1632e-012	
FineR109	-1.79866e-012	-1.46139e-012	-1.31547e-012	-1.19213e-012	-8.54806e-013	-7.08737e-013	-5.85057e-013	-1.01515e-013	4.47598e-014	1.91085e-013	1.68725e-013	6.52622e-013	6.30301e-013	7.76802e-013	9.23353e-013	1.26083e-012	1.4076e-012	1.53207e-012	1.67883e-012	1.99441e-012	2.1632e-012	
FineR110	-1.60741e-012	-1.48407e-012	-1.14679e-012	-1.02342e-012	-8.54806e-013	-7.08737e-013	-5.62618e-013	-2.70159e-013	4.47598e-014	2.13479e-013	3.5981e-013	6.74942e-013	6.52622e-013	7.99103e-013	1.11438e-012	1.23871e-012	1.4076e-012	1.72305e-012	1.8698e-012	2.01659e-012	2.16343e-012	
FineR111	-1.60741e-012	-1.29283e-012	-1.1469e-012	-1.00092e-012	-8.54887e-013	-5.6255e-013	-3.93947e-013	-2.47758e-013	2.35859e-013	2.13479e-013	3.5981e-013	6.74921e-013	8.21357e-013	9.67844e-013	1.11438e-012	1.40761e-012	1.57636e-012	1.72305e-012	1.8698e-012	2.18536e-012	2.33221e-012	
FineR112	-1.43872e-012	-1.29283e-012	-1.1469e-012	-8.32213e-013	-6.86174e-013	-5.40086e-013	-3.93947e-013	-7.90295e-014	4.48101e-014	2.1351e-013	5.06234e-013	6.75e-013	8.21451e-013	1.13671e-012	1.28327e-012	1.42972e-012	1.5986e-012	1.74527e-012	2.06077e-012	2.03856e-012	2.18536e-012	
FineR113	-1.60729e-012	-1.27029e-012	-1.12414e-012	-8.09709e-013	-7.08725e-013	-3.71368e-013	-2.25224e-013	-7.90295e-014	2.35949e-013	3.82249e-013	5.286e-013	6.75e-013	9.90206e-013	1.15889e-012	1.28327e-012	1.42988e-012	1.5986e-012	1.89202e-012	1.89182e-012	2.01658e-012	2.3322e-012	
FineR114	-1.58455e-012	-1.29271e-012	-1.14679e-012	-8.32288e-013	-5.17503e-013	-3.71368e-013	-2.02779e-013	-7.90295e-014	2.35949e-013	3.82249e-013	5.286e-013	8.4375e-013	9.90206e-013	1.13671e-012	1.28327e-012	1.42975e-012	1.57638e-012	1.74531e-012	2.0608e-012	2.20757e-012	2.35439e-012	
FineR115	-1.43858e-012	-1.29271e-012	-1.12424e-012	-8.32098e-013	-6.63505e-013	-5.17462e-013	-2.0265e-013	8.97206e-014	2.35985e-013	5.73374e-013	7.1971e-013	8.66096e-013	8.4375e-013	1.15896e-012	1.28317e-012	1.45203e-012	1.57638e-012	1.91409e-012	2.0608e-012	2.20757e-012	2.35439e-012	
FineR116	-1.416e-012	-1.27014e-012	-9.55526e-013	-8.32098e-013	-6.8607e-013	-3.48771e-013	-2.25127e-013	8.97997e-014	4.04739e-013	5.51059e-013	5.50989e-013	8.66089e-013	1.0125e-012	1.15896e-012	1.30547e-012	1.6208e-012	1.76742e-012	1.91409e-012	2.0608e-012	2.20757e-012	2.52318e-012	
FineR117	-1.24729e-012	-1.10143e-012	-9.55526e-013	-6.40847e-013	-4.94834e-013	-3.48771e-013	-2.0265e-013	8.97997e-014	4.04739e-013	3.82328e-013	6.97427e-013	8.66089e-013	9.90268e-013	1.13676e-012	1.49654e-012	1.6208e-012	1.76742e-012	1.91409e-012	2.22958e-012	2.20736e-012	2.37636e-012	
FineR118	-1.4157e-012	-1.10143e-012	-9.55526e-013	-6.40847e-013	-4.94834e-013	-3.48771e-013	-1.14677e-014	1.1225e-013	2.58428e-013	5.73492e-013	7.19818e-013	8.43822e-013	1.01262e-012	1.30554e-012	1.49654e-012	1.64309e-012	1.76742e-012	2.10511e-012	2.25181e-012	2.22958e-012	2.37636e-012	
FineR119	-1.4157e-012	-1.07858e-012	-7.64261e-013	-6.40847e-013	-4.94834e-013	-1.80039e-013	-3.39196e-014	1.1225e-013	4.27217e-013	5.73492e-013	7.19818e-013	1.03496e-012	1.18139e-012	1.32787e-012	1.4744e-012	1.78977e-012	1.93641e-012	2.08309e-012	2.25206e-012	2.3764e-012	2.56735e-012	
FineR120	-1.2245e-012	-1.10127e-012	-9.55375e-013	-6.18094e-013	-4.72126e-013	-1.57549e-013	-3.39072e-014	3.03443e-013	4.49648e-013	5.73492e-013	8.88577e-013	1.03496e-012	1.18139e-012	1.32787e-012	1.66549e-012	1.78977e-012	1.95868e-012	1.93641e-012	2.25189e-012	2.39863e-012	2.54542e-012	
MinCout:	0	FineR:	104	FineC:	129

