	CoarseC0	CoarseC10	CoarseC20	CoarseC30	CoarseC40	CoarseC50	CoarseC60	CoarseC70	CoarseC80	CoarseC90	CoarseC100	CoarseC110	CoarseC120	CoarseC130	CoarseC140	CoarseC150	CoarseC160	CoarseC170	CoarseC180	CoarseC190	CoarseC200	CoarseC210	CoarseC220	CoarseC230	CoarseC240	CoarseC250	
CoarseR0	-1.01833e-009	-9.7333e-010	-9.37617e-010	-9.07315e-010	-8.80949e-010	-8.57851e-010	-8.37804e-010	-8.20139e-010	-8.04811e-010	-7.91089e-010	-7.78957e-010	-7.6817e-010	-7.58551e-010	-7.50323e-010	-7.42778e-010	-7.36393e-010	-7.30557e-010	-7.2546e-010	-7.20988e-010	-7.17334e-010	-7.14305e-010	-7.11654e-010	-7.09351e-010	-7.07521e-010	-7.06027e-010	-7.04898e-010	
CoarseR10	-7.62496e-010	-7.19753e-010	-6.86756e-010	-6.58528e-010	-6.33872e-010	-6.12331e-010	-5.93305e-010	-5.76694e-010	-5.62095e-010	-5.48955e-010	-5.37435e-010	-5.27299e-010	-5.18311e-010	-5.10609e-010	-5.04057e-010	-4.98092e-010	-4.92986e-010	-4.88548e-010	-4.84816e-010	-4.81499e-010	-4.79025e-010	-4.76891e-010	-4.75177e-010	-4.73816e-010	-4.7313e-010	-4.72603e-010	
CoarseR20	-5.99447e-010	-5.59264e-010	-5.27959e-010	-5.01142e-010	-4.77533e-010	-4.56879e-010	-4.38816e-010	-4.22978e-010	-4.08865e-010	-3.96801e-010	-3.86067e-010	-3.76731e-010	-3.68328e-010	-3.61385e-010	-3.55048e-010	-3.49706e-010	-3.45289e-010	-3.41355e-010	-3.38104e-010	-3.35477e-010	-3.33637e-010	-3.32005e-010	-3.31012e-010	-3.30425e-010	-3.30273e-010	-3.30628e-010	
CoarseR30	-4.84691e-010	-4.46095e-010	-4.15825e-010	-3.90053e-010	-3.67138e-010	-3.47442e-010	-3.30035e-010	-3.1508e-010	-3.01608e-010	-2.90246e-010	-2.79959e-010	-2.71064e-010	-2.63377e-010	-2.56955e-010	-2.5105e-010	-2.46391e-010	-2.42427e-010	-2.39215e-010	-2.36406e-010	-2.34666e-010	-2.33393e-010	-2.32436e-010	-2.32439e-010	-2.32528e-010	-2.33351e-010	-2.34727e-010	
CoarseR40	-4.00023e-010	-3.62511e-010	-3.33239e-010	-3.08104e-010	-2.86058e-010	-2.66861e-010	-2.50279e-010	-2.35884e-010	-2.22954e-010	-2.11933e-010	-2.02425e-010	-1.93972e-010	-1.86704e-010	-1.8083e-010	-1.75638e-010	-1.71542e-010	-1.67998e-010	-1.65302e-010	-1.63347e-010	-1.62259e-010	-1.61587e-010	-1.6178e-010	-1.6271e-010	-1.64349e-010	-1.6682e-010	-1.70674e-010	
CoarseR50	-3.34389e-010	-2.97702e-010	-2.69204e-010	-2.4469e-010	-2.23307e-010	-2.04675e-010	-1.88438e-010	-1.74603e-010	-1.62283e-010	-1.51768e-010	-1.42623e-010	-1.34714e-010	-1.28127e-010	-1.22478e-010	-1.1781e-010	-1.14352e-010	-1.11436e-010	-1.09556e-010	-1.08536e-010	-1.0825e-010	-1.08991e-010	-1.10576e-010	-1.13275e-010	-1.1937e-010	-1.26571e-010	-1.33387e-010	
CoarseR60	-2.81778e-010	-2.45688e-010	-2.1765e-010	-1.93791e-010	-1.72759e-010	-1.5468e-010	-1.3912e-010	-1.25697e-010	-1.13671e-010	-1.03662e-010	-9.48615e-011	-8.7292e-011	-8.1098e-011	-7.60602e-011	-7.20308e-011	-6.91997e-011	-6.71081e-011	-6.61572e-011	-6.62415e-011	-6.73476e-011	-6.99211e-011	-7.67502e-011	-8.38533e-011	-9.09996e-011	-9.77343e-011	-1.04005e-010	
CoarseR70	-2.38635e-010	-2.03228e-010	-1.75523e-010	-1.52156e-010	-1.31749e-010	-1.14037e-010	-9.87947e-011	-8.5666e-011	-7.40988e-011	-6.44107e-011	-5.59949e-011	-4.88803e-011	-4.32963e-011	-3.88851e-011	-3.54946e-011	-3.34534e-011	-3.22894e-011	-3.24598e-011	-3.42978e-011	-3.99813e-011	-4.74548e-011	-5.44614e-011	-6.13187e-011	-6.78769e-011	-7.43264e-011	-8.03105e-011	
CoarseR80	-2.02476e-010	-1.67492e-010	-1.40272e-010	-1.17383e-010	-9.73286e-011	-8.00629e-011	-6.50844e-011	-5.22533e-011	-4.11572e-011	-3.14945e-011	-2.34898e-011	-1.71651e-011	-1.20337e-011	-8.23477e-012	-5.64746e-012	-4.40894e-012	-4.67688e-012	-7.51473e-012	-1.4863e-011	-2.20152e-011	-2.90485e-011	-3.5735e-011	-4.22689e-011	-4.85223e-011	-5.46077e-011	-6.0384e-011	
CoarseR90	-1.71129e-010	-1.36639e-010	-1.09907e-010	-8.72853e-011	-6.76856e-011	-5.06737e-011	-3.60104e-011	-2.34276e-011	-1.23621e-011	-3.28792e-012	4.26982e-012	1.03187e-011	1.46509e-011	1.7663e-011	1.94436e-011	1.90418e-011	1.49158e-011	7.6805e-012	4.98722e-013	-6.33651e-012	-1.28442e-011	-1.93356e-011	-2.56794e-011	-3.16799e-011	-3.73586e-011	-4.28953e-011	
CoarseR100	-1.44269e-010	-1.10228e-010	-8.37587e-011	-6.14114e-011	-4.20748e-011	-2.51347e-011	-1.08789e-011	1.64159e-012	1.23044e-011	2.11147e-011	2.8067e-011	3.34789e-011	3.7181e-011	3.93603e-011	3.96795e-011	3.5429e-011	2.81808e-011	2.09786e-011	1.41702e-011	7.36531e-012	1.12567e-012	-5.13665e-012	-1.12136e-011	-1.69485e-011	-2.2329e-011	-2.77225e-011	
CoarseR110	-1.20852e-010	-8.70919e-011	-6.08459e-011	-3.87147e-011	-1.94442e-011	-2.95361e-012	1.12982e-011	2.3769e-011	3.39849e-011	4.21835e-011	4.88462e-011	5.36172e-011	5.66596e-011	5.76854e-011	5.3893e-011	4.67965e-011	3.96063e-011	3.29999e-011	2.628e-011	1.99081e-011	1.37527e-011	7.62744e-012	2.03218e-012	-3.74047e-012	-8.98163e-012	-1.40485e-011	
CoarseR120	-9.99223e-011	-6.63813e-011	-4.05095e-011	-1.84566e-011	5.88496e-013	1.69716e-011	3.14225e-011	4.34547e-011	5.32542e-011	6.11642e-011	6.71963e-011	7.12993e-011	7.33598e-011	7.13164e-011	6.41936e-011	5.71738e-011	5.04131e-011	4.3737e-011	3.72866e-011	3.12435e-011	2.52267e-011	1.94227e-011	1.37941e-011	8.37862e-012	3.33578e-012	-1.54876e-012	
CoarseR130	-8.14794e-011	-4.81123e-011	-2.2184e-011	-5.06201e-013	1.86397e-011	3.50477e-011	4.92586e-011	6.08803e-011	7.05627e-011	7.80089e-011	8.33945e-011	8.68289e-011	8.72258e-011	8.05304e-011	7.36931e-011	6.71349e-011	6.0339e-011	5.37967e-011	4.76634e-011	4.16063e-011	3.57469e-011	3.02916e-011	2.48794e-011	1.96501e-011	1.46133e-011	9.78259e-012	
CoarseR140	-6.46174e-011	-3.16089e-011	-5.91018e-012	1.60387e-011	3.47701e-011	5.15427e-011	6.55349e-011	7.6898e-011	8.61366e-011	9.31136e-011	9.79854e-011	1.00222e-010	9.59304e-011	8.92259e-011	8.26824e-011	7.60909e-011	6.94374e-011	6.34147e-011	5.72816e-011	5.13925e-011	4.57529e-011	4.01236e-011	3.49064e-011	2.9705e-011	2.49104e-011	2.01251e-011	
CoarseR150	-4.94131e-011	-1.61672e-011	9.22983e-012	3.09788e-011	5.00353e-011	6.66315e-011	8.03332e-011	9.14211e-011	1.0019e-010	1.06868e-010	1.11053e-010	1.10654e-010	1.04055e-010	9.76685e-011	9.11034e-011	8.45019e-011	7.83875e-011	7.21818e-011	6.62384e-011	6.055e-011	5.51126e-011	4.95233e-011	4.45346e-011	3.94039e-011	3.46624e-011	3.01278e-011	
CoarseR160	-3.54785e-011	-2.5418e-012	2.29699e-011	4.44985e-011	6.37713e-011	8.02729e-011	9.39155e-011	1.04558e-010	1.13197e-010	1.19196e-010	1.22498e-010	1.18308e-010	1.11902e-010	1.05518e-010	9.89281e-011	9.30483e-011	8.6765e-011	8.05692e-011	7.48547e-011	6.91957e-011	6.38005e-011	5.84649e-011	5.35345e-011	4.86409e-011	4.39691e-011	3.95348e-011	
CoarseR170	-2.29731e-011	9.93436e-012	3.55633e-011	5.7164e-011	7.67025e-011	9.29636e-011	1.06187e-010	1.16892e-010	1.25043e-010	1.30529e-010	1.3183e-010	1.25456e-010	1.19204e-010	1.13019e-010	1.06634e-010	1.00593e-010	9.45089e-011	8.87268e-011	8.30404e-011	7.74339e-011	7.23054e-011	6.72138e-011	6.21553e-011	5.73449e-011	5.27794e-011	4.84149e-011	
CoarseR180	-1.13668e-011	2.15458e-011	4.703e-011	6.89839e-011	8.84688e-011	1.04655e-010	1.17776e-010	1.28036e-010	1.35873e-010	1.40835e-010	1.38599e-010	1.32441e-010	1.26364e-010	1.20183e-010	1.14193e-010	1.08192e-010	1.02143e-010	9.64218e-011	9.07921e-011	8.54433e-011	8.0193e-011	7.51534e-011	7.04028e-011	6.56713e-011	6.11851e-011	5.67584e-011	
CoarseR190	-8.38206e-013	3.21295e-011	5.75419e-011	7.99001e-011	9.91904e-011	1.15283e-010	1.28278e-010	1.38231e-010	1.45924e-010	1.49839e-010	1.45098e-010	1.39306e-010	1.33092e-010	1.27317e-010	1.21187e-010	1.15242e-010	1.0943e-010	1.03953e-010	9.82028e-011	9.29364e-011	8.77424e-011	8.301e-011	7.79828e-011	7.33412e-011	6.89659e-011	6.46392e-011	
CoarseR200	8.94801e-012	4.17245e-011	6.73048e-011	9.00912e-011	1.09111e-010	1.2518e-010	1.37909e-010	1.47876e-010	1.55101e-010	1.57148e-010	1.51573e-010	1.45649e-010	1.39628e-010	1.33889e-010	1.28003e-010	1.22111e-010	1.1636e-010	1.10783e-010	1.05474e-010	1.00293e-010	9.52089e-011	9.02166e-011	8.54422e-011	8.11202e-011	7.64858e-011	7.26365e-011	
CoarseR210	1.781e-011	5.07635e-011	7.64638e-011	9.92034e-011	1.18527e-010	1.34304e-010	1.47104e-010	1.56766e-010	1.63457e-010	1.63302e-010	1.57599e-010	1.51907e-010	1.46121e-010	1.40428e-010	1.34599e-010	1.28773e-010	1.23284e-010	1.17601e-010	1.12584e-010	1.07313e-010	1.02127e-010	9.74052e-011	9.2762e-011	8.83728e-011	8.38364e-011	7.97383e-011	
CoarseR220	2.60377e-011	5.90508e-011	8.51765e-011	1.07852e-010	1.27122e-010	1.4285e-010	1.557e-010	1.65079e-010	1.71612e-010	1.69028e-010	1.63565e-010	1.57924e-010	1.52372e-010	1.46582e-010	1.40785e-010	1.35238e-010	1.29865e-010	1.24415e-010	1.19118e-010	1.13967e-010	1.09069e-010	1.04448e-010	9.97389e-011	9.52863e-011	9.10899e-011	8.69198e-011	
CoarseR230	3.36171e-011	6.68256e-011	9.31776e-011	1.15862e-010	1.3529e-010	1.50903e-010	1.63481e-010	1.72917e-010	1.7869e-010	1.7463e-010	1.69385e-010	1.63803e-010	1.58331e-010	1.52591e-010	1.4711e-010	1.41444e-010	1.36131e-010	1.30831e-010	1.25609e-010	1.20573e-010	1.15794e-010	1.11109e-010	1.06515e-010	1.02181e-010	9.79324e-011	9.37018e-011	
CoarseR240	4.07029e-011	7.40863e-011	1.00618e-010	1.23447e-010	1.42768e-010	1.58438e-010	1.70954e-010	1.80049e-010	1.85049e-010	1.80149e-010	1.7496e-010	1.69611e-010	1.64034e-010	1.58561e-010	1.53151e-010	1.47596e-010	1.42208e-010	1.36947e-010	1.31873e-010	1.26735e-010	1.22116e-010	1.17337e-010	1.12879e-010	1.0867e-010	1.04358e-010	1.00485e-010	
CoarseR250	4.71365e-011	8.06997e-011	1.07483e-010	1.30438e-010	1.49557e-010	1.65589e-010	1.77767e-010	1.8692e-010	1.90335e-010	1.85514e-010	1.80586e-010	1.75118e-010	1.69616e-010	1.6442e-010	1.58928e-010	1.53439e-010	1.48163e-010	1.43053e-010	1.38064e-010	1.33053e-010	1.28343e-010	1.23717e-010	1.1921e-010	1.14956e-010	1.10759e-010	1.06848e-010	
MinCout:	4.98722e-013	CoarseR:	90	CoarseC:	180

	CoarseC40	CoarseC41	CoarseC42	CoarseC43	CoarseC44	CoarseC45	CoarseC46	CoarseC47	CoarseC48	CoarseC49	CoarseC50	CoarseC51	CoarseC52	CoarseC53	CoarseC54	CoarseC55	CoarseC56	CoarseC57	CoarseC58	CoarseC59	CoarseC60	
CoarseR100	-4.20748e-011	-4.02029e-011	-3.838e-011	-3.66945e-011	-3.48424e-011	-3.31811e-011	-3.16583e-011	-2.99943e-011	-2.83286e-011	-2.68063e-011	-2.51378e-011	-2.36375e-011	-2.22981e-011	-2.07712e-011	-1.9097e-011	-1.77562e-011	-1.60994e-011	-1.49231e-011	-1.35777e-011	-1.22307e-011	-1.09006e-011	
CoarseR101	-3.95866e-011	-3.79078e-011	-3.60542e-011	-3.43967e-011	-3.25229e-011	-3.08626e-011	-2.93446e-011	-2.77033e-011	-2.58476e-011	-2.45166e-011	-2.28244e-011	-2.13008e-011	-1.99867e-011	-1.83147e-011	-1.67874e-011	-1.54476e-011	-1.37919e-011	-1.26166e-011	-1.12721e-011	-9.94641e-012	-8.61892e-012	
CoarseR102	-3.70832e-011	-3.55715e-011	-3.3723e-011	-3.18737e-011	-3.02384e-011	-2.85529e-011	-2.70134e-011	-2.52072e-011	-2.35433e-011	-2.20225e-011	-2.03557e-011	-1.89986e-011	-1.7496e-011	-1.58249e-011	-1.45085e-011	-1.33158e-011	-1.14934e-011	-1.03189e-011	-8.97511e-012	-7.44245e-012	-6.11624e-012	
CoarseR103	-3.49223e-011	-3.30524e-011	-3.14213e-011	-2.95723e-011	-2.78655e-011	-2.62298e-011	-2.45472e-011	-2.28856e-011	-2.13642e-011	-1.98688e-011	-1.82028e-011	-1.66805e-011	-1.50117e-011	-1.36979e-011	-1.21719e-011	-1.08111e-011	-9.17977e-012	-7.98411e-012	-6.66329e-012	-5.31793e-012	-3.84786e-012	
CoarseR104	-3.26048e-011	-3.09025e-011	-2.90556e-011	-2.72339e-011	-2.55517e-011	-2.38676e-011	-2.23756e-011	-2.06922e-011	-1.90304e-011	-1.75335e-011	-1.58687e-011	-1.45375e-011	-1.28694e-011	-1.13454e-011	-1.00311e-011	-8.50468e-012	-7.01829e-012	-5.67937e-012	-4.31657e-012	-2.99404e-012	-1.6697e-012	
CoarseR105	-3.04144e-011	-2.85725e-011	-2.67263e-011	-2.50464e-011	-2.33911e-011	-2.15417e-011	-2.00496e-011	-1.83673e-011	-1.6895e-011	-1.53765e-011	-1.37124e-011	-1.21915e-011	-1.05245e-011	-9.19115e-012	-7.68836e-012	-6.35197e-012	-4.69998e-012	-3.52829e-012	-2.16606e-012	-8.44431e-013	4.58015e-013	
CoarseR106	-2.807e-011	-2.65588e-011	-2.47135e-011	-2.28932e-011	-2.12132e-011	-1.95343e-011	-1.80432e-011	-1.61924e-011	-1.45548e-011	-1.30147e-011	-1.15408e-011	-1.02115e-011	-8.52309e-012	-7.02264e-012	-5.71054e-012	-4.16394e-012	-2.55667e-012	-1.17471e-012	-2.41957e-014	1.29653e-012	2.78774e-012	
CoarseR107	-2.59027e-011	-2.43446e-011	-2.25241e-011	-2.07045e-011	-1.90256e-011	-1.7203e-011	-1.56897e-011	-1.40074e-011	-1.23482e-011	-1.08315e-011	-9.33624e-012	-7.86294e-012	-6.34277e-012	-4.84326e-012	-3.36485e-012	-2.00836e-012	-3.58386e-013	9.7953e-013	2.15072e-012	3.44936e-012	4.93989e-012	
CoarseR108	-2.38407e-011	-2.21901e-011	-2.03463e-011	-1.8646e-011	-1.68258e-011	-1.5147e-011	-1.36581e-011	-1.20014e-011	-1.0175e-011	-8.82687e-012	-7.33242e-012	-5.83727e-012	-4.17269e-012	-2.674e-012	-1.34174e-012	1.8154e-013	1.64099e-012	3.14578e-012	4.14889e-012	5.63537e-012	7.12491e-012	
CoarseR109	-2.16495e-011	-1.9949e-011	-1.81324e-011	-1.64826e-011	-1.46373e-011	-1.29595e-011	-1.14481e-011	-9.79237e-012	-8.13492e-012	-6.78657e-012	-5.12626e-012	-3.6318e-012	-1.96816e-012	-4.70449e-013	8.60534e-013	2.21532e-012	3.84154e-012	5.1774e-012	6.49399e-012	7.8335e-012	9.28008e-012	
CoarseR110	-1.94197e-011	-1.77706e-011	-1.59318e-011	-1.428e-011	-1.25804e-011	-1.07599e-011	-9.44159e-012	-7.59377e-012	-5.93734e-012	-4.61344e-012	-2.95379e-012	-1.60533e-012	-1.10068e-013	1.55442e-012	3.05264e-012	4.38443e-012	6.01002e-012	7.34553e-012	8.49318e-012	9.83204e-012	1.14677e-011	
CoarseR111	-1.73965e-011	-1.57271e-011	-1.38859e-011	-1.22095e-011	-1.05604e-011	-8.71655e-012	-7.20679e-012	-5.57654e-012	-3.8971e-012	-2.40698e-012	-9.15302e-013	6.00772e-013	2.07132e-012	3.56739e-012	5.08738e-012	6.41821e-012	8.02154e-012	9.35637e-012	1.06928e-011	1.20104e-011	1.36663e-011	
CoarseR112	-1.51694e-011	-1.35008e-011	-1.18262e-011	-1.01542e-011	-8.31176e-012	-6.68619e-012	-5.15323e-012	-3.52417e-012	-2.01265e-012	-3.30901e-013	1.3266e-012	2.67259e-012	4.1433e-012	5.80576e-012	7.11127e-012	8.63294e-012	1.02356e-011	1.15696e-011	1.28845e-011	1.42221e-011	1.54972e-011	
CoarseR113	-1.32937e-011	-1.14303e-011	-9.59088e-012	-8.11126e-012	-6.29427e-012	-4.62077e-012	-3.11269e-012	-1.46071e-012	1.93036e-013	1.53796e-012	3.19466e-012	4.68647e-012	6.17896e-012	7.67134e-012	9.16803e-012	1.04757e-011	1.20991e-011	1.34322e-011	1.49381e-011	1.62524e-011	1.77179e-011	
CoarseR114	-1.12375e-011	-9.37466e-012	-7.7273e-012	-6.03264e-012	-4.24106e-012	-2.54414e-012	-1.037e-012	5.89786e-013	2.2454e-012	3.61061e-012	5.41228e-012	6.75734e-012	8.24879e-012	9.88764e-012	1.11912e-011	1.27122e-011	1.4144e-011	1.56233e-011	1.69801e-011	1.82732e-011	1.97581e-011	
CoarseR115	-9.14479e-012	-7.47415e-012	-5.63629e-012	-3.96765e-012	-2.12761e-012	-4.80852e-013	1.02548e-012	2.50862e-012	4.33031e-012	5.67044e-012	7.32525e-012	8.64808e-012	1.03062e-011	1.17998e-011	1.32701e-011	1.47462e-011	1.61982e-011	1.7679e-011	1.90352e-011	2.03276e-011	2.16422e-011	
CoarseR116	-7.06628e-012	-5.56695e-012	-3.73003e-012	-1.91676e-012	-2.72255e-013	1.59345e-012	3.09895e-012	4.5566e-012	6.20747e-012	7.71701e-012	9.3711e-012	1.07172e-011	1.22043e-011	1.38201e-011	1.53154e-011	1.66422e-011	1.82632e-011	1.95734e-011	2.0906e-011	2.21976e-011	2.37041e-011	
CoarseR117	-5.14794e-012	-3.50942e-012	-1.83925e-012	-2.66567e-014	1.64121e-012	3.45706e-012	4.96191e-012	6.63358e-012	8.11625e-012	9.602e-012	1.12552e-011	1.27685e-011	1.40649e-011	1.57019e-011	1.71966e-011	1.85225e-011	2.0122e-011	2.14521e-011	2.28069e-011	2.42678e-011	2.57305e-011	
CoarseR118	-3.24519e-012	-1.57705e-012	6.19814e-014	1.92409e-012	3.71216e-012	5.23872e-012	6.88416e-012	8.56018e-012	1.02089e-011	1.1523e-011	1.31786e-011	1.44962e-011	1.61302e-011	1.77666e-011	1.90662e-011	2.0565e-011	2.21847e-011	2.3514e-011	2.48683e-011	2.6158e-011	2.78101e-011	
CoarseR119	-1.33279e-012	3.35331e-013	2.16981e-012	3.83398e-012	5.64667e-012	7.12302e-012	8.62607e-012	1.04668e-011	1.20917e-011	1.35989e-011	1.50826e-011	1.65671e-011	1.80324e-011	1.96468e-011	2.11406e-011	2.24889e-011	2.40839e-011	2.54157e-011	2.6726e-011	2.80583e-011	2.95401e-011	
CoarseR120	5.89473e-013	2.25582e-012	4.06461e-012	5.75368e-012	7.56566e-012	9.06466e-012	1.05666e-011	1.23601e-011	1.40299e-011	1.55136e-011	1.7142e-011	1.84581e-011	1.99229e-011	2.15581e-011	2.30512e-011	2.43748e-011	2.59962e-011	2.73238e-011	2.86334e-011	2.99452e-011	3.1232e-011	
MinCout:	-2.41957e-014	CoarseR:	106	CoarseC:	58

	FineC0	FineC10	FineC20	FineC30	FineC40	FineC50	FineC60	FineC70	FineC80	FineC90	FineC100	FineC110	FineC120	FineC130	FineC140	FineC150	FineC160	FineC170	FineC180	FineC190	FineC200	FineC210	FineC220	FineC230	FineC240	FineC250	
FineR0	-1.17594e-010	-9.612e-011	-8.27276e-011	-7.26912e-011	-6.50177e-011	-5.90479e-011	-5.41619e-011	-5.00518e-011	-4.66984e-011	-4.3791e-011	-4.13828e-011	-3.90954e-011	-3.7262e-011	-3.56156e-011	-3.4259e-011	-3.2889e-011	-3.18443e-011	-3.0761e-011	-2.98668e-011	-2.8953e-011	-2.82019e-011	-2.74362e-011	-2.68338e-011	-2.62354e-011	-2.56137e-011	-2.51603e-011	
FineR10	-1.02013e-010	-8.05756e-011	-6.70362e-011	-5.71955e-011	-4.9548e-011	-4.36002e-011	-3.8731e-011	-3.46351e-011	-3.12894e-011	-2.85877e-011	-2.59992e-011	-2.38864e-011	-2.20811e-011	-2.04216e-011	-1.89062e-011	-1.77019e-011	-1.64976e-011	-1.5606e-011	-1.45467e-011	-1.38035e-011	-1.30757e-011	-1.23113e-011	-1.1712e-011	-1.09477e-011	-1.05366e-011	-9.74998e-012	
FineR20	-9.50102e-011	-7.35787e-011	-6.02528e-011	-5.02444e-011	-4.26337e-011	-3.66757e-011	-3.18168e-011	-2.7752e-011	-2.44168e-011	-2.15513e-011	-1.91343e-011	-1.70261e-011	-1.52275e-011	-1.35694e-011	-1.2057e-011	-1.08559e-011	-9.65576e-012	-8.59993e-012	-7.5423e-012	-6.80063e-012	-6.07643e-012	-5.33256e-012	-4.5654e-012	-3.98974e-012	-3.37061e-012	-2.94062e-012	
FineR30	-9.11507e-011	-6.96035e-011	-5.62663e-011	-4.62907e-011	-3.88322e-011	-3.25508e-011	-2.77208e-011	-2.38042e-011	-2.04735e-011	-1.75877e-011	-1.51985e-011	-1.30933e-011	-1.12747e-011	-9.64203e-012	-8.1316e-012	-6.78738e-012	-5.73365e-012	-4.69955e-012	-3.64306e-012	-2.75427e-012	-2.1586e-012	-1.24705e-012	-6.72804e-013	-5.48147e-014	5.23463e-013	1.11997e-012	
FineR40	-8.86397e-011	-6.71096e-011	-5.37832e-011	-4.38157e-011	-3.61726e-011	-3.01142e-011	-2.52386e-011	-2.1325e-011	-1.78541e-011	-1.51378e-011	-1.25621e-011	-1.04591e-011	-8.66381e-012	-7.01165e-012	-5.50265e-012	-4.18047e-012	-3.12788e-012	-2.09525e-012	-1.03946e-012	-1.50851e-013	4.2321e-013	1.33467e-012	2.09835e-012	2.52598e-012	3.14391e-012	3.74022e-012	
FineR50	-8.67562e-011	-6.5368e-011	-5.1746e-011	-4.20878e-011	-3.43094e-011	-2.82005e-011	-2.33782e-011	-1.93008e-011	-1.59733e-011	-1.32608e-011	-1.08524e-011	-8.58383e-012	-6.81263e-012	-5.13927e-012	-3.79938e-012	-2.45637e-012	-1.25885e-012	-2.26549e-013	8.28554e-013	1.56971e-012	2.26925e-012	3.20092e-012	3.79674e-012	4.37118e-012	4.98886e-012	5.41754e-012	
FineR60	-8.5562e-011	-6.4024e-011	-5.05442e-011	-4.05621e-011	-3.29522e-011	-2.70386e-011	-2.2196e-011	-1.81215e-011	-1.48209e-011	-1.17746e-011	-9.53558e-012	-7.45731e-012	-5.47563e-012	-3.82559e-012	-2.48581e-012	-1.14422e-012	3.27552e-014	1.08569e-012	1.97155e-012	2.85889e-012	3.76838e-012	4.34253e-012	5.10551e-012	5.70169e-012	6.27667e-012	6.72493e-012	
FineR70	-8.44325e-011	-6.29e-011	-4.95859e-011	-3.96072e-011	-3.21394e-011	-2.59242e-011	-2.12482e-011	-1.69844e-011	-1.36854e-011	-1.08308e-011	-8.42486e-012	-6.32623e-012	-4.5346e-012	-2.71739e-012	-1.3787e-012	-1.53141e-014	9.9253e-013	2.02385e-012	3.07821e-012	3.9653e-012	4.7262e-012	5.44864e-012	6.21152e-012	6.63786e-012	7.40288e-012	7.85093e-012	
FineR80	-8.36197e-011	-6.21308e-011	-4.86258e-011	-3.86761e-011	-3.12103e-011	-2.53287e-011	-2.02981e-011	-1.62265e-011	-1.29286e-011	-1.00511e-011	-7.66953e-012	-5.57077e-012	-3.59041e-012	-1.94162e-012	-6.25204e-013	5.47899e-013	1.91264e-012	2.94355e-012	4.01862e-012	4.90526e-012	5.45689e-012	6.38793e-012	6.96205e-012	7.55588e-012	8.153e-012	8.76868e-012	
FineR90	-8.30727e-011	-6.15499e-011	-4.82418e-011	-3.82678e-011	-3.06365e-011	-2.45648e-011	-1.9727e-011	-1.56548e-011	-1.23582e-011	-9.33872e-012	-7.07883e-012	-4.98114e-012	-3.024e-012	-1.39748e-012	1.08313e-013	1.30264e-012	2.66704e-012	3.67664e-012	4.56161e-012	5.46907e-012	6.21004e-012	6.95128e-012	7.5251e-012	8.28841e-012	8.71571e-012	9.33128e-012	
FineR100	-8.24862e-011	-6.09683e-011	-4.76633e-011	-3.76915e-011	-3.0062e-011	-2.4016e-011	-1.9179e-011	-1.5084e-011	-1.17883e-011	-8.93623e-012	-6.51027e-012	-4.41314e-012	-2.47844e-012	-8.08417e-013	6.75045e-013	2.01528e-012	3.23316e-012	4.24249e-012	5.1272e-012	6.03448e-012	6.75485e-012	7.49541e-012	8.25778e-012	8.85307e-012	9.28024e-012	9.89572e-012	
FineR110	-8.20589e-011	-6.03798e-011	-4.69485e-011	-3.71108e-011	-2.95119e-011	-2.36075e-011	-1.86046e-011	-1.47036e-011	-1.12166e-011	-8.36641e-012	-5.96359e-012	-3.88905e-012	-2.07769e-012	-4.30254e-013	1.07463e-012	2.39281e-012	3.58925e-012	4.61938e-012	5.52507e-012	6.41151e-012	7.31995e-012	7.89234e-012	8.63442e-012	9.22958e-012	9.84443e-012	1.04617e-011	
FineR120	-8.15019e-011	-6.01891e-011	-4.66946e-011	-3.67531e-011	-2.91294e-011	-2.30582e-011	-1.82235e-011	-1.41305e-011	-1.10027e-011	-7.98567e-012	-5.5609e-012	-3.50979e-012	-1.69865e-012	-5.16486e-014	1.43107e-012	2.62454e-012	3.96677e-012	4.99659e-012	6.07101e-012	6.93626e-012	7.50752e-012	8.43809e-012	9.20018e-012	9.60555e-012	1.02221e-011	1.08177e-011	
FineR130	-8.11431e-011	-5.97964e-011	-4.63366e-011	-3.65327e-011	-2.89358e-011	-2.28654e-011	-1.80313e-011	-1.39389e-011	-1.04777e-011	-7.60555e-012	-5.22616e-012	-3.10729e-012	-1.3415e-012	3.05478e-013	1.80996e-012	3.14939e-012	4.34538e-012	5.37507e-012	6.25914e-012	7.1659e-012	8.05363e-012	8.62573e-012	9.40868e-012	1.00034e-011	1.05774e-011	1.11945e-011	
FineR140	-8.09438e-011	-5.94036e-011	-4.61406e-011	-3.61451e-011	-2.85499e-011	-2.24808e-011	-1.76479e-011	-1.35813e-011	-1.02878e-011	-7.41397e-012	-5.01325e-012	-2.91727e-012	-9.61872e-013	6.62745e-013	2.18888e-012	3.52804e-012	4.53364e-012	5.75322e-012	6.63709e-012	7.50194e-012	8.43124e-012	9.00317e-012	9.76501e-012	1.03398e-011	1.09545e-011	1.14015e-011	
FineR150	-8.07447e-011	-5.92343e-011	-4.59453e-011	-3.59767e-011	-2.81889e-011	-2.22882e-011	-1.72882e-011	-1.32221e-011	-9.90488e-012	-7.20036e-012	-4.65516e-012	-2.55974e-012	-6.04283e-013	1.04213e-012	2.37798e-012	3.71734e-012	4.91218e-012	5.94129e-012	6.99383e-012	7.73241e-012	8.61988e-012	9.35967e-012	9.95344e-012	1.05464e-011	1.11427e-011	1.17382e-011	
FineR160	-8.05455e-011	-5.9003e-011	-4.55505e-011	-3.56147e-011	-2.79954e-011	-2.19279e-011	-1.72615e-011	-1.30305e-011	-9.90423e-012	-6.84187e-012	-4.46465e-012	-2.2018e-012	-5.81948e-013	1.06398e-012	2.73566e-012	4.07452e-012	5.10141e-012	6.13036e-012	7.18277e-012	8.08917e-012	8.97657e-012	9.54827e-012	1.029e-011	1.07348e-011	1.14992e-011	1.19461e-011	
FineR170	-8.03075e-011	-5.8806e-011	-4.53549e-011	-3.54203e-011	-2.78019e-011	-2.17351e-011	-1.69039e-011	-1.28388e-011	-9.68874e-012	-6.67389e-012	-4.27364e-012	-2.15617e-012	-3.91904e-013	1.58947e-012	2.75717e-012	4.09563e-012	5.29017e-012	6.31951e-012	7.37179e-012	8.25677e-012	9.18565e-012	9.73696e-012	1.04986e-011	1.09244e-011	1.16876e-011	1.21345e-011	
FineR180	-8.01386e-011	-5.86373e-011	-4.51862e-011	-3.52258e-011	-2.76055e-011	-2.15422e-011	-1.67116e-011	-1.26457e-011	-9.35437e-012	-6.48292e-012	-3.9153e-012	-1.98865e-012	-2.01782e-013	1.42161e-012	2.94687e-012	4.45353e-012	5.62702e-012	6.50874e-012	7.56088e-012	8.44573e-012	9.33301e-012	1.00937e-011	1.06873e-011	1.12799e-011	1.18749e-011	1.2302e-011	
FineR190	-7.97796e-011	-5.8447e-011	-4.51854e-011	-3.50572e-011	-2.74118e-011	-2.15415e-011	-1.65176e-011	-1.24539e-011	-9.16298e-012	-6.29187e-012	-3.89229e-012	-1.79822e-012	1.56012e-013	1.80138e-012	3.28283e-012	4.64266e-012	5.81646e-012	6.84526e-012	7.7286e-012	8.63477e-012	9.54223e-012	1.00934e-011	1.08549e-011	1.14702e-011	1.20438e-011	1.24905e-011	
FineR200	-7.9779e-011	-5.82781e-011	-4.48273e-011	-3.50008e-011	-2.72469e-011	-2.13218e-011	-1.6517e-011	-1.24533e-011	-8.97062e-012	-6.10117e-012	-3.72424e-012	-1.63023e-012	3.46266e-013	1.96928e-012	3.4723e-012	4.64264e-012	6.00534e-012	7.03389e-012	7.91783e-012	8.97166e-012	9.54194e-012	1.02812e-011	1.08745e-011	1.16379e-011	1.2063e-011	1.28477e-011	
FineR210	-7.95713e-011	-5.82429e-011	-4.47948e-011	-3.46689e-011	-2.70504e-011	-2.09885e-011	-1.63486e-011	-1.22365e-011	-8.78051e-012	-5.93302e-012	-3.53377e-012	-1.6073e-012	3.68749e-013	1.96941e-012	3.47237e-012	4.8105e-012	6.00528e-012	7.03376e-012	8.10728e-012	8.99189e-012	9.89926e-012	1.04715e-011	1.12329e-011	1.16375e-011	1.24006e-011	1.28473e-011	
FineR220	-7.94111e-011	-5.79128e-011	-4.4626e-011	-3.46384e-011	-2.70495e-011	-2.0961e-011	-1.61327e-011	-1.207e-011	-8.61225e-012	-5.93257e-012	-3.36565e-012	-1.2719e-012	5.36598e-013	2.32718e-012	3.64028e-012	5.00022e-012	6.02633e-012	7.41284e-012	8.27424e-012	9.01215e-012	9.89902e-012	1.06594e-011	1.12114e-011	1.19948e-011	1.24409e-011	1.28468e-011	
FineR230	-7.93717e-011	-5.78776e-011	-4.44312e-011	-3.46635e-011	-2.70486e-011	-2.09848e-011	-1.59627e-011	-1.20445e-011	-8.5875e-012	-5.74179e-012	-3.34216e-012	-1.24893e-012	7.04646e-013	2.32736e-012	3.83015e-012	5.00026e-012	6.36281e-012	7.39116e-012	8.27411e-012	9.17997e-012	1.00668e-011	1.06592e-011	1.14204e-011	1.19945e-011	1.24405e-011	1.32251e-011	
FineR240	-7.9371e-011	-5.77155e-011	-4.44301e-011	-3.44697e-011	-2.66879e-011	-2.07678e-011	-1.57966e-011	-1.17339e-011	-8.58609e-012	-5.54997e-012	-3.34176e-012	-1.08124e-012	8.94805e-013	2.34946e-012	3.85188e-012	5.35791e-012	6.38389e-012	7.41195e-012	8.44298e-012	9.34896e-012	1.02562e-011	1.08272e-011	1.15885e-011	1.2014e-011	1.27571e-011	1.32037e-011	
FineR250	-7.92026e-011	-5.77086e-011	-4.42623e-011	-3.44687e-011	-2.66843e-011	-2.06239e-011	-1.57701e-011	-1.17084e-011	-8.4192e-012	-5.57252e-012	-2.98343e-012	-1.08082e-012	8.94979e-013	2.53948e-012	4.02017e-012	5.358e-012	6.53074e-012	7.58071e-012	8.46352e-012	9.34782e-012	1.0255e-011	1.10152e-011	1.15882e-011	1.21821e-011	1.27765e-011	1.3223e-011	
MinCout:	-1.53141e-014	FineR:	70	FineC:	150

	FineC110	FineC111	FineC112	FineC113	FineC114	FineC115	FineC116	FineC117	FineC118	FineC119	FineC120	FineC121	FineC122	FineC123	FineC124	FineC125	FineC126	FineC127	FineC128	FineC129	FineC130	
FineR140	-2.77226e-012	-2.6046e-012	-2.45956e-012	-2.31447e-012	-2.00163e-012	-1.85624e-012	-1.711e-012	-1.39804e-012	-1.2527e-012	-1.10731e-012	-9.61872e-013	-8.16385e-013	-6.70827e-013	-5.25266e-013	-3.79655e-013	-2.11874e-013	-6.61974e-014	2.47242e-013	3.70996e-013	5.38853e-013	6.84732e-013	
FineR141	-2.74989e-012	-2.60488e-012	-2.45982e-012	-2.14678e-012	-2.00163e-012	-1.85644e-012	-1.71119e-012	-1.39818e-012	-1.25283e-012	-1.10743e-012	-9.61872e-013	-6.48678e-013	-6.70827e-013	-5.25266e-013	-2.11938e-013	-2.11904e-013	7.94436e-014	2.47242e-013	3.93022e-013	5.38853e-013	8.52461e-013	
FineR142	-2.74989e-012	-2.60488e-012	-2.29212e-012	-2.14701e-012	-1.97934e-012	-1.66647e-012	-1.54349e-012	-1.39818e-012	-1.25283e-012	-1.27505e-012	-9.61908e-013	-6.26529e-013	-6.70827e-013	-5.03136e-013	-2.11938e-013	-6.62718e-014	1.01511e-013	2.4726e-013	5.60741e-013	7.28584e-013	8.74449e-013	
FineR143	-2.72751e-012	-2.43718e-012	-2.29212e-012	-2.14701e-012	-1.83414e-012	-1.68892e-012	-1.52124e-012	-1.39818e-012	-1.08512e-012	-1.10733e-012	-9.61908e-013	-7.9417e-013	-6.48678e-013	-3.35424e-013	-1.89827e-013	-4.41812e-014	1.01515e-013	4.14993e-013	5.38761e-013	7.28584e-013	6.84569e-013	
FineR144	-2.74956e-012	-2.43718e-012	-2.29212e-012	-2.14701e-012	-2.00162e-012	-1.85643e-012	-1.52124e-012	-1.37579e-012	-1.25271e-012	-9.39714e-013	-9.61908e-013	-8.16432e-013	-4.80971e-013	-3.35424e-013	-1.89827e-013	-4.41812e-014	2.69242e-013	4.14993e-013	5.60793e-013	5.38761e-013	6.8463e-013	
FineR145	-2.74984e-012	-2.41483e-012	-2.26949e-012	-1.95699e-012	-1.83414e-012	-1.85643e-012	-1.52105e-012	-1.23061e-012	-1.23048e-012	-1.08512e-012	-7.94192e-013	-6.26536e-013	-5.03179e-013	-3.57598e-013	-1.89827e-013	1.23541e-013	2.69242e-013	4.14993e-013	5.60793e-013	7.06499e-013	8.52374e-013	
FineR146	-2.74984e-012	-2.41451e-012	-2.29185e-012	-1.95699e-012	-2.00162e-012	-1.85643e-012	-1.54348e-012	-1.37579e-012	-1.23048e-012	-9.17411e-013	-7.71999e-013	-6.26536e-013	-4.81025e-013	-1.67732e-013	-2.21154e-014	1.45632e-013	1.01451e-013	2.69242e-013	7.28531e-013	7.06499e-013	8.52374e-013	
FineR147	-2.55948e-012	-2.41451e-012	-2.26949e-012	-2.12442e-012	-1.9793e-012	-1.66643e-012	-1.54348e-012	-1.37579e-012	-1.06277e-012	-9.17411e-013	-7.71999e-013	-6.26536e-013	-4.81025e-013	-1.67732e-013	0	1.45632e-013	1.23541e-013	4.3697e-013	5.60675e-013	7.28531e-013	8.74386e-013	
FineR148	-2.58214e-012	-2.43714e-012	-2.26949e-012	-2.14698e-012	-1.8116e-012	-1.68872e-012	-1.5212e-012	-1.20821e-012	-1.08512e-012	-9.17411e-013	-7.71999e-013	-4.58815e-013	-3.13298e-013	-1.67732e-013	-2.21154e-014	-2.21101e-014	2.91264e-013	4.14937e-013	5.82726e-013	7.28531e-013	1.04213e-012	
FineR149	-2.55974e-012	-2.43714e-012	-2.29209e-012	-1.95672e-012	-1.8116e-012	-1.66643e-012	-1.35349e-012	-1.23047e-012	-1.06288e-012	-8.95198e-013	-9.39624e-013	-4.58815e-013	-4.80989e-013	-3.35453e-013	-2.21349e-014	1.23506e-013	2.69197e-013	4.3697e-013	5.82726e-013	8.9627e-013	1.04213e-012	
FineR150	-2.55974e-012	-2.41476e-012	-2.10201e-012	-1.97927e-012	-1.8116e-012	-1.66643e-012	-1.35349e-012	-1.20821e-012	-1.06288e-012	-7.49777e-013	-5.82089e-013	-6.04283e-013	-2.91144e-013	-1.45572e-013	-2.21349e-014	1.23506e-013	2.69197e-013	4.3697e-013	7.50459e-013	8.9627e-013	8.74238e-013	
FineR151	-2.55974e-012	-2.24705e-012	-2.10201e-012	-1.95693e-012	-1.81179e-012	-1.47642e-012	-1.35349e-012	-1.20821e-012	-1.06288e-012	-7.49777e-013	-7.71996e-013	-4.58863e-013	-4.58815e-013	-1.67746e-013	0	1.45621e-013	2.91293e-013	6.0476e-013	7.28479e-013	8.96361e-013	8.74324e-013	
FineR152	-2.39204e-012	-2.24705e-012	-2.10201e-012	-1.78921e-012	-1.81155e-012	-1.47642e-012	-1.35349e-012	-1.20821e-012	-8.9516e-013	-9.17398e-013	-7.71996e-013	-6.26544e-013	-3.13302e-013	-1.45572e-013	0	1.45621e-013	4.59035e-013	6.0476e-013	7.28479e-013	8.96361e-013	8.74324e-013	
FineR153	-2.39228e-012	-2.22467e-012	-2.07965e-012	-1.78921e-012	-1.81155e-012	-1.47642e-012	-1.35363e-012	-1.0406e-012	-8.9516e-013	-9.17398e-013	-7.49777e-013	-4.58809e-013	-3.13302e-013	-1.45586e-013	0	3.13358e-013	4.59035e-013	4.36939e-013	7.50536e-013	7.50459e-013	1.04208e-012	
FineR154	-2.53698e-012	-2.39204e-012	-2.10172e-012	-1.78921e-012	-1.81155e-012	-1.66639e-012	-1.33101e-012	-1.18578e-012	-1.04049e-012	-8.9516e-013	-7.49777e-013	-4.58809e-013	-3.13302e-013	-1.67746e-013	1.67732e-013	3.13358e-013	2.91243e-013	4.36939e-013	9.18288e-013	9.18192e-013	1.04208e-012	
FineR155	-2.53698e-012	-2.24674e-012	-2.07934e-012	-1.95666e-012	-1.81155e-012	-1.47619e-012	-1.33101e-012	-1.18578e-012	-1.04049e-012	-7.27435e-013	-5.82047e-013	-4.3661e-013	-3.13302e-013	2.21597e-014	1.67732e-013	1.45597e-013	2.91243e-013	6.04681e-013	7.72426e-013	8.96232e-013	1.04208e-012	
FineR156	-2.36928e-012	-2.24697e-012	-2.07934e-012	-1.9343e-012	-1.62149e-012	-1.49866e-012	-1.35344e-012	-1.18578e-012	-8.72773e-013	-7.27435e-013	-5.59777e-013	-4.3661e-013	-1.23382e-013	-1.45547e-013	1.67732e-013	1.67732e-013	2.91243e-013	6.26777e-013	7.50432e-013	8.96232e-013	1.04208e-012	
FineR157	-2.36928e-012	-2.22434e-012	-2.07934e-012	-1.78895e-012	-1.64383e-012	-1.47619e-012	-1.33101e-012	-1.01806e-012	-8.72773e-013	-7.49673e-013	-6.04265e-013	-4.36493e-013	-2.91045e-013	-1.23373e-013	1.67732e-013	3.35463e-013	4.81095e-013	6.26777e-013	7.50432e-013	8.96232e-013	1.23175e-012	
FineR158	-2.36928e-012	-2.22434e-012	-1.91164e-012	-1.76659e-012	-1.59899e-012	-1.49866e-012	-1.18572e-012	-1.01806e-012	-8.50516e-013	-5.37472e-013	-4.14317e-013	-2.68874e-013	-1.23382e-013	-1.45561e-013	1.89881e-013	3.35463e-013	4.81095e-013	6.26777e-013	9.18179e-013	1.08604e-012	1.25378e-012	
FineR159	-2.36952e-012	-2.07925e-012	-1.91164e-012	-1.76659e-012	-1.62149e-012	-1.30862e-012	-1.16341e-012	-1.01816e-012	-8.72859e-013	-5.5971e-013	-4.14317e-013	-2.68874e-013	-2.91073e-013	2.21792e-014	1.67746e-013	3.35463e-013	4.59028e-013	7.94519e-013	9.40255e-013	1.08604e-012	1.23188e-012	
FineR160	-2.36952e-012	-2.05684e-012	-1.91183e-012	-1.76659e-012	-1.45377e-012	-1.30862e-012	-1.16341e-012	-9.95785e-013	-7.05119e-013	-5.5971e-013	-5.81948e-013	-4.36535e-013	-1.23338e-013	2.21792e-014	1.89881e-013	3.13362e-013	4.59028e-013	7.94519e-013	9.40255e-013	9.18179e-013	1.06398e-012	
MinCout:	0	FineR:	147	FineC:	124

