	CoarseC0	CoarseC10	CoarseC20	CoarseC30	CoarseC40	CoarseC50	CoarseC60	CoarseC70	CoarseC80	CoarseC90	CoarseC100	CoarseC110	CoarseC120	CoarseC130	CoarseC140	CoarseC150	CoarseC160	CoarseC170	CoarseC180	CoarseC190	CoarseC200	CoarseC210	CoarseC220	CoarseC230	CoarseC240	CoarseC250	
CoarseR0	-2.74281e-010	-2.6131e-010	-2.52657e-010	-2.46521e-010	-2.42225e-010	-2.39098e-010	-2.36913e-010	-2.35502e-010	-2.3541e-010	-2.35465e-010	-2.35736e-010	-2.36073e-010	-2.37238e-010	-2.3918e-010	-2.40967e-010	-2.42441e-010	-2.43619e-010	-2.44314e-010	-2.4466e-010	-2.446e-010	-2.44153e-010	-2.433e-010	-2.42258e-010	-2.40886e-010	-2.39277e-010	-2.37507e-010	
CoarseR10	-2.0962e-010	-1.98848e-010	-1.92143e-010	-1.87202e-010	-1.84117e-010	-1.82693e-010	-1.82082e-010	-1.82063e-010	-1.82531e-010	-1.83664e-010	-1.86194e-010	-1.89083e-010	-1.91687e-010	-1.94298e-010	-1.96515e-010	-1.98561e-010	-2.00192e-010	-2.01484e-010	-2.02372e-010	-2.02948e-010	-2.03138e-010	-2.03159e-010	-2.02985e-010	-2.02885e-010	-2.02503e-010	-2.01987e-010	
CoarseR20	-1.57883e-010	-1.49116e-010	-1.43728e-010	-1.40449e-010	-1.38832e-010	-1.3811e-010	-1.38284e-010	-1.39348e-010	-1.42051e-010	-1.45088e-010	-1.48303e-010	-1.51439e-010	-1.54596e-010	-1.57565e-010	-1.60328e-010	-1.62861e-010	-1.65236e-010	-1.67239e-010	-1.68966e-010	-1.70641e-010	-1.72537e-010	-1.73918e-010	-1.74938e-010	-1.75454e-010	-1.75682e-010	-1.75578e-010	
CoarseR30	-1.16387e-010	-1.09007e-010	-1.05299e-010	-1.03247e-010	-1.02189e-010	-1.02279e-010	-1.04252e-010	-1.07136e-010	-1.10235e-010	-1.13548e-010	-1.17034e-010	-1.20469e-010	-1.23977e-010	-1.27472e-010	-1.30749e-010	-1.33972e-010	-1.37118e-010	-1.404e-010	-1.44028e-010	-1.47101e-010	-1.49488e-010	-1.51283e-010	-1.52632e-010	-1.53639e-010	-1.54178e-010	-1.54535e-010	
CoarseR40	-8.53289e-011	-7.79957e-011	-7.48825e-011	-7.34718e-011	-7.35345e-011	-7.53491e-011	-7.7894e-011	-8.08985e-011	-8.41398e-011	-8.76029e-011	-9.1348e-011	-9.5178e-011	-9.91623e-011	-1.03178e-010	-1.07188e-010	-1.11538e-010	-1.16529e-010	-1.21361e-010	-1.25284e-010	-1.28486e-010	-1.31127e-010	-1.33128e-010	-1.34711e-010	-1.35921e-010	-1.36742e-010	-1.37352e-010	
CoarseR50	-5.97158e-011	-5.34444e-011	-5.11273e-011	-5.04687e-011	-5.17498e-011	-5.38154e-011	-5.6233e-011	-5.91343e-011	-6.24951e-011	-6.60874e-011	-6.99407e-011	-7.41456e-011	-7.8583e-011	-8.33501e-011	-8.86071e-011	-9.50825e-011	-1.0095e-010	-1.05805e-010	-1.09874e-010	-1.1323e-010	-1.15935e-010	-1.18183e-010	-1.19941e-010	-1.21317e-010	-1.22361e-010	-1.23146e-010	
CoarseR60	-3.96065e-011	-3.57466e-011	-3.26525e-011	-3.2986e-011	-3.39726e-011	-3.59004e-011	-3.82524e-011	-4.11501e-011	-4.4416e-011	-4.8157e-011	-5.22937e-011	-5.68349e-011	-6.17177e-011	-6.75758e-011	-7.49246e-011	-8.18149e-011	-8.76781e-011	-9.26864e-011	-9.68221e-011	-1.00329e-010	-1.03183e-010	-1.0552e-010	-1.07503e-010	-1.09014e-010	-1.10277e-010	-1.11208e-010	
CoarseR70	-2.4035e-011	-2.09598e-011	-2.02277e-011	-1.86148e-011	-1.95649e-011	-2.10494e-011	-2.33146e-011	-2.61995e-011	-2.95799e-011	-3.33875e-011	-3.77004e-011	-4.26162e-011	-4.83511e-011	-5.61517e-011	-6.38517e-011	-7.05341e-011	-7.63673e-011	-8.13847e-011	-8.55985e-011	-8.92242e-011	-9.22828e-011	-9.4738e-011	-9.68277e-011	-9.86371e-011	-9.99146e-011	-1.01026e-010	
CoarseR80	-1.22215e-011	-9.66192e-012	-8.68777e-012	-7.06166e-012	-7.68525e-012	-8.9456e-012	-1.10519e-011	-1.37718e-011	-1.7131e-011	-2.1095e-011	-2.55478e-011	-3.09364e-011	-3.8212e-011	-4.67435e-011	-5.4289e-011	-6.09506e-011	-6.67816e-011	-7.16749e-011	-7.60331e-011	-7.97258e-011	-8.28596e-011	-8.54024e-011	-8.76314e-011	-8.9476e-011	-9.10031e-011	-9.2222e-011	
CoarseR90	-3.32967e-012	-6.85661e-013	5.05215e-013	7.04654e-013	2.10674e-012	7.75987e-013	-8.53475e-013	-3.55416e-012	-6.82282e-012	-1.07769e-011	-1.54946e-011	-2.13769e-011	-2.98471e-011	-3.82471e-011	-4.58981e-011	-5.24677e-011	-5.82343e-011	-6.32748e-011	-6.76165e-011	-7.13623e-011	-7.46131e-011	-7.73586e-011	-7.97095e-011	-8.15912e-011	-8.32345e-011	-8.45543e-011	
CoarseR100	3.60979e-012	6.32009e-012	7.88434e-012	8.42116e-012	9.95512e-012	8.89427e-012	7.43547e-012	4.95734e-012	1.80075e-012	-2.1474e-012	-6.99669e-012	-1.37952e-011	-2.25359e-011	-3.0963e-011	-3.83991e-011	-4.49928e-011	-5.08026e-011	-5.59756e-011	-6.02947e-011	-6.41154e-011	-6.74019e-011	-7.01811e-011	-7.26173e-011	-7.46968e-011	-7.64268e-011	-7.78374e-011	
CoarseR110	8.79667e-012	1.18139e-011	1.34353e-011	1.45578e-011	1.61855e-011	1.54621e-011	1.42595e-011	1.19706e-011	8.88338e-012	5.06786e-012	1.27474e-013	-7.19256e-012	-1.60184e-011	-2.42996e-011	-3.1725e-011	-3.84138e-011	-4.42611e-011	-4.94213e-011	-5.38804e-011	-5.78178e-011	-6.11621e-011	-6.40203e-011	-6.65356e-011	-6.87253e-011	-7.04865e-011	-7.2027e-011	
CoarseR120	1.28093e-011	1.62468e-011	1.83191e-011	1.9409e-011	2.12703e-011	2.08079e-011	1.9768e-011	1.76516e-011	1.48061e-011	1.10338e-011	6.16472e-012	-1.2976e-012	-1.01354e-011	-1.8437e-011	-2.58291e-011	-3.24213e-011	-3.8382e-011	-4.36224e-011	-4.82109e-011	-5.22274e-011	-5.56738e-011	-5.86929e-011	-6.12184e-011	-6.3424e-011	-6.53686e-011	-6.70056e-011	
CoarseR130	1.55223e-011	1.92271e-011	2.17093e-011	2.29181e-011	2.50881e-011	2.48318e-011	2.40645e-011	2.21786e-011	1.94995e-011	1.59009e-011	1.11863e-011	3.74002e-012	-4.96579e-012	-1.32607e-011	-2.07159e-011	-2.73452e-011	-3.33424e-011	-3.86104e-011	-4.32772e-011	-4.73729e-011	-5.09792e-011	-5.4004e-011	-5.66812e-011	-5.89894e-011	-6.10259e-011	-6.26716e-011	
CoarseR140	1.73842e-011	2.13714e-011	2.39942e-011	2.55298e-011	2.78696e-011	2.796e-011	2.73241e-011	2.57546e-011	2.325e-011	1.99194e-011	1.53104e-011	8.1367e-012	-4.99327e-013	-8.6886e-012	-1.61417e-011	-2.29969e-011	-2.8919e-011	-3.4408e-011	-3.91117e-011	-4.32967e-011	-4.69093e-011	-5.01091e-011	-5.28637e-011	-5.52955e-011	-5.73719e-011	-5.90628e-011	
CoarseR150	1.83273e-011	2.26865e-011	2.54647e-011	2.73884e-011	2.99549e-011	3.01388e-011	2.98234e-011	2.8345e-011	2.61011e-011	2.29491e-011	1.875e-011	1.18473e-011	3.35252e-012	-4.84599e-012	-1.23342e-011	-1.9085e-011	-2.52709e-011	-3.07026e-011	-3.55139e-011	-3.97954e-011	-4.3547e-011	-4.68408e-011	-4.97666e-011	-5.21908e-011	-5.43133e-011	-5.61579e-011	
CoarseR160	1.87236e-011	2.33762e-011	2.63974e-011	2.85366e-011	3.11396e-011	3.16151e-011	3.14408e-011	3.02702e-011	2.82383e-011	2.52371e-011	2.1315e-011	1.50694e-011	6.7444e-012	-1.47761e-012	-9.03453e-012	-1.58631e-011	-2.20475e-011	-2.75931e-011	-3.25782e-011	-3.69036e-011	-4.07755e-011	-4.41582e-011	-4.70869e-011	-4.95986e-011	-5.18806e-011	-5.3735e-011	
CoarseR170	1.8604e-011	2.32672e-011	2.65775e-011	2.89328e-011	3.17985e-011	3.24221e-011	3.24845e-011	3.14531e-011	2.9657e-011	2.69986e-011	2.33384e-011	1.76498e-011	9.63183e-012	1.29007e-012	-6.25598e-012	-1.32674e-011	-1.94761e-011	-2.51347e-011	-3.00463e-011	-3.45562e-011	-3.85114e-011	-4.19192e-011	-4.50131e-011	-4.76138e-011	-4.99133e-011	-5.18603e-011	
CoarseR180	1.81441e-011	2.30317e-011	2.6412e-011	2.88776e-011	3.18836e-011	3.27795e-011	3.28762e-011	3.20966e-011	3.0471e-011	2.80853e-011	2.46373e-011	1.96467e-011	1.20516e-011	3.62852e-012	-3.99602e-012	-1.10163e-011	-1.74009e-011	-2.31093e-011	-2.81601e-011	-3.27456e-011	-3.67411e-011	-4.02076e-011	-4.328e-011	-4.59976e-011	-4.83619e-011	-5.03425e-011	
CoarseR190	1.71414e-011	2.21922e-011	2.58932e-011	2.85196e-011	3.17176e-011	3.27162e-011	3.28909e-011	3.22675e-011	3.09035e-011	2.86143e-011	2.54724e-011	2.10408e-011	1.38988e-011	5.47753e-012	-2.28091e-012	-9.35761e-012	-1.57224e-011	-2.15491e-011	-2.6761e-011	-3.13244e-011	-3.53754e-011	-3.89571e-011	-4.21546e-011	-4.49142e-011	-4.72994e-011	-4.93323e-011	
CoarseR200	1.60343e-011	2.14743e-011	2.50372e-011	2.77966e-011	3.11726e-011	3.22185e-011	3.26191e-011	3.20829e-011	3.07948e-011	2.8716e-011	2.57904e-011	2.17342e-011	1.51836e-011	7.01825e-012	-8.73196e-013	-8.02012e-012	-1.45055e-011	-2.03509e-011	-2.55925e-011	-3.03576e-011	-3.44971e-011	-3.81168e-011	-4.136e-011	-4.41576e-011	-4.66347e-011	-4.87792e-011	
CoarseR210	1.47636e-011	2.03273e-011	2.41613e-011	2.69999e-011	3.0381e-011	3.14922e-011	3.19433e-011	3.16004e-011	3.04071e-011	2.84717e-011	2.57333e-011	2.19356e-011	1.59648e-011	8.04517e-012	1.56767e-013	-7.07273e-012	-1.36554e-011	-1.95988e-011	-2.48769e-011	-2.96972e-011	-3.3952e-011	-3.76724e-011	-4.09077e-011	-4.37169e-011	-4.61641e-011	-4.83303e-011	
CoarseR220	1.34622e-011	1.91873e-011	2.30087e-011	2.58669e-011	2.9468e-011	3.05811e-011	3.11346e-011	3.08907e-011	2.98196e-011	2.79638e-011	2.54014e-011	2.18065e-011	1.64161e-011	8.78754e-012	8.32202e-013	-6.48511e-012	-1.31838e-011	-1.91708e-011	-2.45558e-011	-2.93929e-011	-3.367e-011	-3.74463e-011	-4.07293e-011	-4.36395e-011	-4.60904e-011	-4.83104e-011	
CoarseR230	1.20791e-011	1.7995e-011	2.20302e-011	2.48313e-011	2.83891e-011	2.96117e-011	3.02724e-011	2.99941e-011	2.90768e-011	2.73127e-011	2.47806e-011	2.14863e-011	1.65713e-011	9.17678e-012	1.2323e-012	-6.16601e-012	-1.29102e-011	-1.90352e-011	-2.44109e-011	-2.92854e-011	-3.3627e-011	-3.73912e-011	-4.07612e-011	-4.37162e-011	-4.6229e-011	-4.84303e-011	
CoarseR240	1.06838e-011	1.68586e-011	2.07276e-011	2.3801e-011	2.73107e-011	2.85819e-011	2.92828e-011	2.90482e-011	2.81275e-011	2.64831e-011	2.41124e-011	2.08861e-011	1.63095e-011	9.30632e-012	1.36761e-012	-6.07478e-012	-1.28559e-011	-1.89917e-011	-2.44777e-011	-2.94101e-011	-3.37343e-011	-3.7578e-011	-4.09699e-011	-4.39378e-011	-4.6468e-011	-4.86958e-011	
CoarseR250	9.41966e-012	1.5695e-011	1.96303e-011	2.28133e-011	2.62821e-011	2.7544e-011	2.81987e-011	2.80338e-011	2.71791e-011	2.55308e-011	2.32507e-011	2.01289e-011	1.5865e-011	9.17489e-012	1.31303e-012	-6.22319e-012	-1.30182e-011	-1.92033e-011	-2.46996e-011	-2.96753e-011	-3.40944e-011	-3.79117e-011	-4.13526e-011	-4.43487e-011	-4.69018e-011	-4.91442e-011	
MinCout:	1.27474e-013	CoarseR:	110	CoarseC:	100

	CoarseC50	CoarseC51	CoarseC52	CoarseC53	CoarseC54	CoarseC55	CoarseC56	CoarseC57	CoarseC58	CoarseC59	CoarseC60	CoarseC61	CoarseC62	CoarseC63	CoarseC64	CoarseC65	CoarseC66	CoarseC67	CoarseC68	CoarseC69	CoarseC70	
CoarseR80	-8.90777e-012	-9.13936e-012	-9.2815e-012	-9.52134e-012	-9.70841e-012	-9.82811e-012	-1.0058e-011	-1.02563e-011	-1.04619e-011	-1.06624e-011	-1.09413e-011	-1.11863e-011	-1.14295e-011	-1.16418e-011	-1.19453e-011	-1.21739e-011	-1.24728e-011	-1.27646e-011	-1.3022e-011	-1.33395e-011	-1.36234e-011	
CoarseR81	-8.06805e-012	-8.0628e-012	-8.23747e-012	-8.36564e-012	-8.63393e-012	-8.71367e-012	-8.94789e-012	-9.13672e-012	-9.36456e-012	-9.6177e-012	-9.82797e-012	-1.00996e-011	-1.03451e-011	-1.05528e-011	-1.0831e-011	-1.11403e-011	-1.13709e-011	-1.16532e-011	-1.19674e-011	-1.22084e-011	-1.2533e-011	
CoarseR82	-7.02007e-012	-7.1868e-012	-7.14535e-012	-7.31345e-012	-7.49104e-012	-7.70422e-012	-7.83419e-012	-8.02625e-012	-8.21521e-012	-8.43609e-012	-8.69784e-012	-8.93589e-012	-9.21404e-012	-9.4191e-012	-9.70646e-012	-9.98283e-012	-1.02586e-011	-1.05212e-011	-1.08906e-011	-1.10751e-011	-1.13659e-011	
CoarseR83	-5.96146e-012	-6.13138e-012	-6.09329e-012	-6.29993e-012	-6.4102e-012	-6.63308e-012	-6.83033e-012	-7.00277e-012	-7.18171e-012	-7.37726e-012	-7.62211e-012	-7.88408e-012	-8.13471e-012	-8.40805e-012	-8.61329e-012	-8.89321e-012	-9.20153e-012	-9.43721e-012	-9.75166e-012	-1.00334e-011	-1.02914e-011	
CoarseR84	-4.935e-012	-5.10816e-012	-5.29347e-012	-5.21202e-012	-5.45461e-012	-5.6005e-012	-5.75174e-012	-6.01442e-012	-6.14448e-012	-6.41542e-012	-6.5981e-012	-6.86308e-012	-7.11765e-012	-7.36989e-012	-7.5654e-012	-7.84212e-012	-8.12377e-012	-8.3792e-012	-8.66643e-012	-8.96991e-012	-9.26607e-012	
CoarseR85	-3.89886e-012	-4.09038e-012	-4.27088e-012	-4.49118e-012	-4.44522e-012	-4.60955e-012	-4.78416e-012	-4.98515e-012	-5.17657e-012	-5.34254e-012	-5.56402e-012	-5.79627e-012	-6.05393e-012	-6.27386e-012	-6.58594e-012	-6.80039e-012	-7.11347e-012	-7.37755e-012	-7.65546e-012	-7.92708e-012	-8.23788e-012	
CoarseR86	-3.01858e-012	-3.12587e-012	-3.2888e-012	-3.51222e-012	-3.43345e-012	-3.67214e-012	-3.89284e-012	-3.9891e-012	-4.18333e-012	-4.38094e-012	-4.5271e-012	-4.7916e-012	-5.05885e-012	-5.28168e-012	-5.56723e-012	-5.81393e-012	-6.0579e-012	-6.36021e-012	-6.64781e-012	-6.91592e-012	-7.21642e-012	
CoarseR87	-2.01276e-012	-2.16644e-012	-2.3398e-012	-2.52316e-012	-2.70375e-012	-2.65996e-012	-2.89901e-012	-2.96928e-012	-3.20897e-012	-3.41e-012	-3.53648e-012	-3.83962e-012	-4.1033e-012	-4.32896e-012	-4.58168e-012	-4.84441e-012	-5.08477e-012	-5.36025e-012	-5.7088e-012	-5.94299e-012	-6.25303e-012	
CoarseR88	-1.0836e-012	-1.20432e-012	-1.37377e-012	-1.56016e-012	-1.7581e-012	-1.71037e-012	-1.92315e-012	-2.14017e-012	-2.18963e-012	-2.40044e-012	-2.60149e-012	-2.87149e-012	-3.10235e-012	-3.40943e-012	-3.62901e-012	-3.92347e-012	-4.11479e-012	-4.41581e-012	-4.70134e-012	-5.01021e-012	-5.28641e-012	
CoarseR89	-1.88056e-013	-2.68342e-013	-4.84419e-013	-6.30573e-013	-8.38933e-013	-1.01457e-012	-1.20921e-012	-1.19362e-012	-1.36061e-012	-1.46659e-012	-1.74246e-012	-1.94348e-012	-2.18357e-012	-2.45121e-012	-2.71543e-012	-2.97028e-012	-3.22341e-012	-3.43831e-012	-3.72092e-012	-4.03844e-012	-4.33439e-012	
CoarseR90	7.46025e-013	5.75933e-013	4.4406e-013	2.79829e-013	8.32243e-014	-6.69196e-014	-2.86053e-013	-2.44776e-013	-4.5731e-013	-5.1652e-013	-7.66149e-013	-1.04202e-012	-1.21369e-012	-1.48369e-012	-1.73747e-012	-1.97284e-012	-2.27062e-012	-2.5184e-012	-2.78024e-012	-3.0709e-012	-3.41186e-012	
CoarseR91	1.59514e-012	1.4658e-012	1.33081e-012	1.12814e-012	1.03543e-012	8.11032e-013	5.81846e-013	6.63372e-013	4.84011e-013	2.5745e-013	1.69632e-013	-1.08914e-013	-3.12434e-013	-5.20406e-013	-8.19708e-013	-1.08007e-012	-1.35828e-012	-1.55864e-012	-1.86008e-012	-2.10438e-012	-2.39521e-012	
CoarseR92	2.49775e-012	2.35793e-012	2.21233e-012	2.04996e-012	1.84677e-012	1.69124e-012	1.53063e-012	1.30215e-012	1.39169e-012	1.25509e-012	1.0068e-012	7.83548e-013	5.41211e-013	3.0179e-013	1.29741e-013	-2.05303e-013	-4.2303e-013	-6.59641e-013	-9.79544e-013	-1.2331e-012	-1.51999e-012	
CoarseR93	3.35888e-012	3.26706e-012	3.04639e-012	2.90959e-012	2.68885e-012	2.58106e-012	2.34594e-012	2.17877e-012	2.02941e-012	2.04023e-012	1.86821e-012	1.69899e-012	1.43311e-012	1.19764e-012	9.29287e-013	7.07819e-013	4.51269e-013	2.0315e-013	-1.1029e-013	-3.59471e-013	-6.48765e-013	
CoarseR94	4.26553e-012	4.09155e-012	3.93174e-012	3.76348e-012	3.59034e-012	3.39319e-012	3.21998e-012	3.06458e-012	2.91227e-012	2.98513e-012	2.73851e-012	2.53066e-012	2.31161e-012	2.05987e-012	1.81081e-012	1.578e-012	1.32812e-012	1.04804e-012	7.75182e-013	5.22854e-013	2.31152e-013	
CoarseR95	5.04851e-012	4.87255e-012	4.68143e-012	4.58206e-012	4.36295e-012	4.19923e-012	4.03076e-012	3.91606e-012	3.73258e-012	3.7595e-012	3.60341e-012	3.35703e-012	3.12857e-012	2.89476e-012	2.67933e-012	2.40128e-012	2.19135e-012	1.88861e-012	1.5902e-012	1.36538e-012	1.07724e-012	
CoarseR96	5.80566e-012	5.69078e-012	5.49676e-012	5.32305e-012	5.1011e-012	4.9635e-012	4.75564e-012	4.70346e-012	4.48179e-012	4.28365e-012	4.29046e-012	4.18509e-012	3.88891e-012	3.66803e-012	3.46369e-012	3.21238e-012	2.94153e-012	2.74452e-012	2.50235e-012	2.17391e-012	1.87675e-012	
CoarseR97	6.58579e-012	6.43904e-012	6.27908e-012	6.13874e-012	5.91385e-012	5.74483e-012	5.60651e-012	5.47252e-012	5.31935e-012	5.16182e-012	5.23085e-012	4.94292e-012	4.70928e-012	4.46348e-012	4.21366e-012	3.99539e-012	3.72239e-012	3.49409e-012	3.27824e-012	2.97638e-012	2.68368e-012	
CoarseR98	7.35156e-012	7.23134e-012	7.06837e-012	6.88221e-012	6.66228e-012	6.54783e-012	6.3857e-012	6.24816e-012	6.20117e-012	5.95488e-012	5.72654e-012	5.77446e-012	5.50885e-012	5.28259e-012	5.04416e-012	4.79497e-012	4.5051e-012	4.28159e-012	4.03355e-012	3.78817e-012	3.48636e-012	
CoarseR99	8.06248e-012	7.9466e-012	7.78004e-012	7.59885e-012	7.43318e-012	7.25905e-012	7.11583e-012	7.06182e-012	6.89044e-012	6.72778e-012	6.49013e-012	6.52152e-012	6.26026e-012	6.08152e-012	5.81985e-012	5.53859e-012	5.3035e-012	5.06365e-012	4.81352e-012	4.57936e-012	4.31102e-012	
CoarseR100	8.79712e-012	8.70774e-012	8.53818e-012	8.41801e-012	8.21396e-012	8.00888e-012	7.94131e-012	7.71241e-012	7.61625e-012	7.40836e-012	7.25457e-012	7.02401e-012	7.07756e-012	6.83184e-012	6.58109e-012	6.31947e-012	6.10426e-012	5.83348e-012	5.55108e-012	5.35051e-012	5.07329e-012	
MinCout:	-6.69196e-014	CoarseR:	90	CoarseC:	55

	FineC0	FineC10	FineC20	FineC30	FineC40	FineC50	FineC60	FineC70	FineC80	FineC90	FineC100	FineC110	FineC120	FineC130	FineC140	FineC150	FineC160	FineC170	FineC180	FineC190	FineC200	FineC210	FineC220	FineC230	FineC240	FineC250	
FineR0	-1.61408e-011	-1.22301e-011	-1.08024e-011	-9.90808e-012	-9.15683e-012	-8.59586e-012	-8.13454e-012	-7.78406e-012	-7.48317e-012	-7.19032e-012	-6.92685e-012	-6.64859e-012	-6.27178e-012	-6.35493e-012	-6.1782e-012	-6.02457e-012	-5.8778e-012	-5.53004e-012	-5.65468e-012	-5.53725e-012	-5.46826e-012	-5.42215e-012	-5.35916e-012	-5.24054e-012	-5.16413e-012	-5.05791e-012	
FineR10	-1.16404e-011	-9.55204e-012	-6.26444e-012	-5.3311e-012	-4.59922e-012	-4.05187e-012	-3.61979e-012	-3.24622e-012	-2.93483e-012	-2.71618e-012	-2.48313e-012	-2.30787e-012	-2.12586e-012	-1.97328e-012	-1.85672e-012	-1.74709e-012	-1.63055e-012	-1.5142e-012	-1.39116e-012	-1.31103e-012	-1.23069e-012	-1.15018e-012	-1.07626e-012	-9.95926e-013	-9.51682e-013	-8.77615e-013	
FineR20	-1.05441e-011	-8.32493e-012	-5.1335e-012	-4.17403e-012	-3.40407e-012	-2.81606e-012	-2.42786e-012	-2.05424e-012	-1.75648e-012	-1.49332e-012	-1.2876e-012	-1.18966e-012	-1.00599e-012	-8.58422e-013	-7.46904e-013	-6.3555e-013	-4.81287e-013	-3.63236e-013	-2.74526e-013	-1.92688e-013	-1.11042e-013	-6.53261e-014	1.65874e-014	1.2812e-013	1.37779e-013	2.42579e-013	
FineR30	-1.01539e-011	-8.03147e-012	-4.74614e-012	-3.78171e-012	-3.01397e-012	-2.42755e-012	-1.99658e-012	-1.61589e-012	-1.31065e-012	-1.06137e-012	-8.62065e-013	-6.91453e-013	-5.72002e-013	-3.94508e-013	-2.7536e-013	-1.20386e-013	-3.7396e-014	8.14024e-014	2.00199e-013	2.89511e-013	3.35871e-013	4.11599e-013	4.94214e-013	5.69921e-013	6.09668e-013	6.49701e-013	
FineR40	-1.01258e-011	-6.06981e-012	-4.59444e-012	-3.60635e-012	-2.87557e-012	-2.25457e-012	-1.79572e-012	-1.45059e-012	-1.10946e-012	-8.52849e-013	-6.5311e-013	-4.46226e-013	-3.76039e-013	-2.20268e-013	-7.15922e-014	9.08022e-014	2.10101e-013	2.86504e-013	4.12448e-013	4.95398e-013	5.42276e-013	6.25129e-013	7.01368e-013	7.84578e-013	8.67282e-013	8.71206e-013	
FineR50	-1.01358e-011	-7.74177e-012	-4.525e-012	-3.51207e-012	-2.782e-012	-2.18921e-012	-1.69523e-012	-1.31443e-012	-9.73283e-013	-7.8078e-013	-5.52268e-013	-3.81037e-013	-2.02835e-013	-8.27297e-014	3.02337e-014	1.85992e-013	3.0556e-013	3.89053e-013	5.01673e-013	5.55728e-013	6.8176e-013	7.21979e-013	7.75888e-013	8.45474e-013	1.00109e-012	1.00525e-012	
FineR60	-1.0119e-011	-7.81735e-012	-4.45863e-012	-3.48152e-012	-2.71709e-012	-2.13216e-012	-1.63066e-012	-1.2499e-012	-9.80106e-013	-7.30494e-013	-4.94565e-013	-3.2314e-013	-1.37709e-013	-6.03438e-014	5.27969e-014	2.08728e-013	3.28531e-013	4.48125e-013	5.31673e-013	6.51303e-013	6.98664e-013	7.8183e-013	8.29005e-013	9.41752e-013	9.82241e-013	1.06555e-012	
FineR70	-1.01173e-011	-5.97527e-012	-4.47208e-012	-3.46821e-012	-2.73088e-012	-2.11087e-012	-1.64496e-012	-1.27155e-012	-9.22888e-013	-6.73089e-013	-4.65707e-013	-2.58301e-013	-1.15675e-013	-2.17127e-015	1.11146e-013	2.312e-013	3.51083e-013	4.77859e-013	5.61387e-013	6.81113e-013	7.28477e-013	8.11858e-013	8.52471e-013	9.71964e-013	1.01918e-012	1.06662e-012	
FineR80	-1.01076e-011	-7.82798e-012	-4.5118e-012	-3.4391e-012	-2.73744e-012	-2.16065e-012	-1.65937e-012	-1.24291e-012	-9.37197e-013	-7.08677e-013	-4.79853e-013	-3.15314e-013	-1.22596e-013	2.69028e-014	9.73616e-014	2.17504e-013	3.80429e-013	4.6425e-013	5.84042e-013	6.67721e-013	7.51323e-013	7.98831e-013	8.82174e-013	9.5884e-013	1.04252e-012	1.08974e-012	
FineR90	-1.02229e-011	-7.85807e-012	-4.48324e-012	-3.47258e-012	-2.70107e-012	-2.1245e-012	-1.63098e-012	-1.25011e-012	-9.44368e-013	-6.80029e-013	-4.79815e-013	-2.79413e-013	-9.3673e-014	2.69928e-014	1.3343e-013	2.53632e-013	3.73747e-013	4.93678e-013	5.84237e-013	6.97223e-013	7.87736e-013	7.923e-013	9.18562e-013	9.66132e-013	1.04276e-012	1.07688e-012	
FineR100	-1.01851e-011	-7.86915e-012	-4.48985e-012	-3.47146e-012	-2.74353e-012	-2.16715e-012	-1.66612e-012	-1.28546e-012	-9.79886e-013	-7.22937e-013	-4.86856e-013	-3.15223e-013	-1.43621e-013	1.30248e-014	9.05353e-014	2.10744e-013	3.66813e-013	4.50796e-013	5.41375e-013	6.54455e-013	7.38037e-013	8.21715e-013	8.69194e-013	9.52605e-013	1.02953e-012	1.0409e-012	
FineR110	-1.02476e-011	-7.94308e-012	-4.50555e-012	-3.48683e-012	-2.79378e-012	-2.20979e-012	-1.71636e-012	-1.2644e-012	-9.87065e-013	-7.29988e-013	-5.01079e-013	-3.29357e-013	-1.43601e-013	6.06895e-015	1.19591e-013	4.62413e-013	3.30899e-013	4.50839e-013	5.6385e-013	6.47707e-013	7.31257e-013	7.78878e-013	8.26376e-013	9.03123e-013	9.86736e-013	1.06364e-012	
FineR120	-1.03526e-011	-6.07524e-012	-4.56546e-012	-3.49417e-012	-2.8011e-012	-2.18172e-012	-1.72362e-012	-1.30726e-012	-9.94232e-013	-7.37121e-013	-5.44003e-013	-3.29293e-013	-1.86495e-013	-4.38556e-014	4.07116e-014	1.60989e-013	3.17099e-013	4.01133e-013	5.20978e-013	6.40745e-013	7.31324e-013	7.72116e-013	8.19639e-013	9.03229e-013	9.43979e-013	1.02073e-012	
FineR130	-1.0378e-011	-8.03223e-012	-4.58147e-012	-3.53679e-012	-2.80842e-012	-2.18902e-012	-1.76643e-012	-1.37836e-012	-1.03712e-012	-7.80007e-013	-5.86903e-013	-3.72237e-013	-1.93537e-013	-3.68319e-014	3.37776e-014	1.54076e-013	2.74185e-013	3.9417e-013	4.8495e-013	5.61874e-013	6.88411e-013	7.65273e-013	8.12898e-013	8.60322e-013	9.37275e-013	9.77823e-013	
FineR140	-1.03407e-011	-6.13521e-012	-4.58952e-012	-3.5361e-012	-2.85111e-012	-2.23179e-012	-1.76626e-012	-1.38559e-012	-1.037e-012	-7.87231e-013	-5.86837e-013	-4.15139e-013	-2.36447e-013	-8.6752e-014	3.3767e-014	1.47104e-013	2.38201e-013	3.5126e-013	4.77991e-013	5.61786e-013	6.81624e-013	7.2244e-013	8.05934e-013	8.536e-013	9.30304e-013	9.77953e-013	
FineR150	-1.03173e-011	-6.17753e-012	-4.632e-012	-3.57912e-012	-2.85087e-012	-2.27455e-012	-1.80158e-012	-1.42843e-012	-1.12295e-012	-8.65856e-013	-5.58114e-013	-4.2218e-013	-2.50509e-013	-1.00758e-013	2.67851e-014	7.51596e-014	2.31238e-013	3.08356e-013	4.35089e-013	5.12012e-013	5.95742e-013	6.86081e-013	7.63031e-013	8.46635e-013	8.874e-013	9.2795e-013	
FineR160	-1.04917e-011	-6.186e-012	-4.64004e-012	-3.62172e-012	-2.8933e-012	-2.28195e-012	-1.81636e-012	-1.43564e-012	-1.12271e-012	-8.65664e-013	-6.36795e-013	-4.72162e-013	-3.29289e-013	-1.36655e-013	-2.3089e-014	6.81953e-014	1.88265e-013	3.08304e-013	3.98955e-013	5.1193e-013	5.95647e-013	6.79236e-013	7.26756e-013	7.67564e-013	8.57746e-013	8.91876e-013	
FineR170	-1.04275e-011	-6.25447e-012	-4.70928e-012	-3.65668e-012	-2.94452e-012	-2.32503e-012	-1.88721e-012	-1.4711e-012	-1.17294e-012	-9.15803e-013	-6.43861e-013	-5.15086e-013	-3.36296e-013	-1.43658e-013	-2.30919e-014	2.53065e-014	1.81311e-013	2.65314e-013	3.85187e-013	4.98191e-013	5.95553e-013	6.7239e-013	6.83981e-013	8.03499e-013	8.50925e-013	8.91876e-013	
FineR180	-1.04262e-011	-6.25447e-012	-4.68321e-012	-3.66472e-012	-2.94426e-012	-2.32481e-012	-1.89469e-012	-1.50656e-012	-1.16553e-012	-9.085e-013	-6.79647e-013	-5.15027e-013	-3.29252e-013	-1.43658e-013	-5.20677e-014	-1.06716e-014	1.52298e-013	2.65314e-013	3.49242e-013	4.68893e-013	5.52588e-013	6.36154e-013	6.83653e-013	7.3127e-013	8.44104e-013	8.48709e-013	
FineR190	-1.04684e-011	-6.29792e-012	-4.75244e-012	-3.70771e-012	-2.97936e-012	-2.36004e-012	-1.93004e-012	-1.52145e-012	-1.20848e-012	-9.51432e-013	-7.583e-013	-5.50795e-013	-3.72128e-013	-2.22463e-013	-1.01954e-013	-2.45662e-014	1.0242e-013	2.22334e-013	3.35298e-013	3.89923e-013	5.45644e-013	6.00115e-013	7.06133e-013	7.1749e-013	7.65035e-013	8.35072e-013	
FineR200	-1.06655e-011	-6.35056e-012	-4.7608e-012	-3.751e-012	-2.99495e-012	-2.37528e-012	-1.93752e-012	-1.5569e-012	-1.2513e-012	-9.58525e-013	-7.36762e-013	-5.57817e-013	-4.14994e-013	-2.22441e-013	-1.01948e-013	-2.46191e-014	3.17912e-013	2.15434e-013	2.63241e-013	4.18999e-013	5.09539e-013	5.50299e-013	6.33727e-013	6.81326e-013	7.64905e-013	8.34657e-013	
FineR210	-1.06856e-011	-6.38517e-012	-4.76952e-012	-3.75873e-012	-3.03004e-012	-2.41835e-012	-1.94483e-012	-1.5997e-012	-1.25844e-012	-1.00865e-012	-7.72456e-013	-6.07811e-013	-4.14948e-013	-2.29423e-013	-1.51827e-013	-3.15665e-014	1.65529e-014	1.72465e-013	2.9913e-013	3.75983e-013	4.59646e-013	5.07239e-013	6.19956e-013	6.31394e-013	7.57573e-013	7.55587e-013	
FineR220	-1.06336e-011	-8.32865e-012	-4.84709e-012	-3.81004e-012	-3.08099e-012	-2.41811e-012	-1.98784e-012	-1.59953e-012	-1.29396e-012	-1.03706e-012	-8.1537e-013	-6.43635e-013	-4.57851e-013	-2.72326e-013	-1.51827e-013	-6.75389e-014	2.34727e-014	1.36435e-013	2.63076e-013	3.82849e-013	4.30397e-013	5.43179e-013	5.90645e-013	6.38221e-013	7.14706e-013	7.91509e-013	
FineR230	-1.06784e-011	-6.4286e-012	-4.88221e-012	-3.83694e-012	-3.03779e-012	-2.46118e-012	-1.98016e-012	-1.6425e-012	-1.33704e-012	-1.07999e-012	-8.08143e-013	-6.43562e-013	-4.93714e-013	-2.72326e-013	-1.87768e-013	-1.03511e-013	9.56881e-015	1.36403e-013	2.20142e-013	3.39841e-013	4.30321e-013	5.06968e-013	5.90544e-013	6.01952e-013	7.21523e-013	7.62403e-013	
FineR240	-1.06251e-011	-6.45476e-012	-4.84778e-012	-3.82891e-012	-3.10827e-012	-2.48116e-012	-2.02337e-012	-1.67074e-012	-1.33704e-012	-1.07999e-012	-8.51052e-013	-6.79382e-013	-4.93659e-013	-3.012e-013	-1.87752e-013	-9.65697e-014	1.64704e-014	1.36313e-013	2.20142e-013	3.46705e-013	4.30321e-013	5.00216e-013	5.54405e-013	6.31166e-013	6.85225e-013	7.55182e-013	
FineR250	-1.06902e-011	-6.43858e-012	-4.84744e-012	-3.83735e-012	-3.08093e-012	-2.48877e-012	-2.02317e-012	-1.6781e-012	-1.34429e-012	-1.07987e-012	-8.58186e-013	-6.79382e-013	-4.57784e-013	-3.15229e-013	-2.23689e-013	-1.39478e-013	1.64704e-014	1.00376e-013	2.20142e-013	3.03764e-013	3.87443e-013	4.70849e-013	5.54405e-013	6.01844e-013	6.85225e-013	7.61992e-013	
MinCout:	-2.17127e-015	FineR:	70	FineC:	130

	FineC120	FineC121	FineC122	FineC123	FineC124	FineC125	FineC126	FineC127	FineC128	FineC129	FineC130	FineC131	FineC132	FineC133	FineC134	FineC135	FineC136	FineC137	FineC138	FineC139	FineC140	
FineR140	-2.07606e-013	-2.00555e-013	-2.00573e-013	-1.93538e-013	-1.57657e-013	-1.50633e-013	-1.50651e-013	-1.00717e-013	-1.36649e-013	-1.36671e-013	-9.3752e-014	-9.37823e-014	-7.97992e-014	-7.98224e-014	-7.98455e-014	-3.69541e-014	-3.69541e-014	-2.30067e-014	1.98651e-014	1.98512e-014	2.67943e-014	
FineR141	-2.43492e-013	-2.00555e-013	-2.00573e-013	-2.0057e-013	-2.22405e-013	-1.50633e-013	-1.7952e-013	-1.43641e-013	-1.00741e-013	-9.37444e-014	-1.29674e-013	-9.37823e-014	-7.97992e-014	-7.98224e-014	-7.28491e-014	-3.69337e-014	5.95141e-015	-3.00145e-014	-2.30616e-014	-1.60804e-014	3.37563e-014	
FineR142	1.48371e-014	-2.07569e-013	-2.07609e-013	-2.36465e-013	-1.64684e-013	-1.50633e-013	-1.43616e-013	-1.43635e-013	-1.43661e-013	-1.00741e-013	-1.3668e-013	-9.37746e-014	-7.97943e-014	-7.98175e-014	-7.98407e-014	-6.58828e-014	-7.28962e-014	5.93389e-015	-2.30341e-014	-2.30861e-014	1.98138e-014	
FineR143	-2.93434e-013	-2.79343e-013	-2.43476e-013	-2.36439e-013	-2.00563e-013	-1.93559e-013	1.07731e-013	-1.86562e-013	-1.43661e-013	-1.36658e-013	-1.3668e-013	-9.37746e-014	-9.37936e-014	-8.68112e-014	-8.68323e-014	-3.69542e-014	-7.28962e-014	-3.69949e-014	-2.30616e-014	-2.30861e-014	-1.61114e-014	
FineR144	-2.93434e-013	-2.43454e-013	-2.43476e-013	-2.43497e-013	-2.00563e-013	-1.93559e-013	-1.57653e-013	-1.50655e-013	-1.43647e-013	-1.36658e-013	-1.07769e-013	-1.00774e-013	-8.67901e-014	-8.68112e-014	-7.98407e-014	5.96891e-015	-1.03107e-015	-2.3037e-014	-2.30341e-014	1.28686e-014	1.98138e-014	
FineR145	-2.5048e-013	-2.07569e-013	-2.36416e-013	-2.36439e-013	-1.64666e-013	-1.57656e-013	-1.86539e-013	-1.14745e-013	-1.36636e-013	-1.36658e-013	-1.29662e-013	-9.37746e-014	-9.37936e-014	-7.98175e-014	-4.3905e-014	-3.69338e-014	2.35393e-013	5.93389e-015	1.28882e-014	1.28686e-014	1.98138e-014	
FineR146	-2.57552e-013	-2.07569e-013	-2.07586e-013	-1.64671e-013	-1.57641e-013	-1.57656e-013	-1.57655e-013	-1.14745e-013	-1.0775e-013	-1.00749e-013	-9.37556e-014	-1.29686e-013	-9.37936e-014	-7.98175e-014	-4.39219e-014	-7.28709e-014	-7.28962e-014	-3.69949e-014	1.28882e-014	5.89385e-015	1.98138e-014	
FineR147	-2.57552e-013	-2.1463e-013	-2.1462e-013	-2.00545e-013	-1.64666e-013	-2.00582e-013	-1.57655e-013	-1.43621e-013	-1.43661e-013	-1.36645e-013	-1.00749e-013	-5.78502e-014	-8.67901e-014	-7.98175e-014	-4.3905e-014	-3.69338e-014	2.28435e-013	-2.30096e-014	1.28882e-014	1.98356e-014	1.98138e-014	
FineR148	-2.43438e-013	-2.505e-013	-2.07586e-013	-2.07602e-013	-1.64666e-013	-1.57656e-013	-1.50635e-013	-1.14745e-013	-1.36636e-013	-6.48312e-014	-5.78362e-014	-5.78502e-014	-5.78643e-014	-7.98175e-014	-7.98476e-015	-3.69338e-014	5.94641e-015	5.93389e-015	-3.00145e-014	-2.30587e-014	1.98138e-014	
FineR149	-2.57552e-013	-2.4346e-013	-2.07586e-013	-1.64652e-013	-1.57641e-013	-1.57656e-013	-1.50635e-013	-1.50653e-013	-1.43647e-013	-1.0775e-013	-6.48432e-014	-9.37633e-014	-5.78643e-014	-5.08804e-014	-4.39036e-014	-4.39219e-014	-3.69542e-014	-2.99921e-014	1.28818e-014	1.28622e-014	1.28426e-014	
FineR150	-2.5048e-013	-2.50491e-013	-2.5051e-013	-2.4347e-013	-2.00567e-013	-1.93538e-013	-1.5062e-013	-1.50637e-013	-1.50673e-013	-1.43667e-013	-1.00749e-013	-1.29675e-013	-9.37859e-014	-4.38854e-014	-5.08966e-014	-4.39219e-014	-2.99696e-014	1.29014e-014	-2.3037e-014	1.98356e-014	1.98138e-014	
FineR151	-2.5048e-013	-2.505e-013	-2.1462e-013	-2.00548e-013	-1.57624e-013	-1.57639e-013	-1.5062e-013	-1.50637e-013	-1.43647e-013	-1.36645e-013	-1.00749e-013	-6.48495e-014	-1.36711e-013	-8.68112e-014	-5.08966e-014	-4.39219e-014	-3.69542e-014	-2.99921e-014	-2.3037e-014	-2.30616e-014	1.9806e-014	
FineR152	-2.57552e-013	-2.14606e-013	-2.07563e-013	-1.64652e-013	-2.00567e-013	-1.64679e-013	-1.50635e-013	-1.50653e-013	-1.00725e-013	-1.0775e-013	-9.37444e-014	-9.37633e-014	-1.227e-013	-7.98175e-014	-3.69135e-014	-3.69338e-014	-2.99696e-014	-2.30096e-014	-1.60581e-014	-1.60847e-014	-1.61114e-014	
FineR153	-2.5048e-013	-2.505e-013	-2.0053e-013	-2.00548e-013	-1.93518e-013	-1.57639e-013	-1.57655e-013	-1.43621e-013	-1.00725e-013	-1.00741e-013	-6.48432e-014	-9.37633e-014	-5.08643e-014	-5.08804e-014	-4.3905e-014	-3.69338e-014	-6.59081e-014	-2.99921e-014	-2.3037e-014	-1.60847e-014	1.9806e-014	
FineR154	-2.5048e-013	-2.505e-013	-2.1462e-013	-2.00548e-013	-2.00567e-013	-1.57639e-013	-1.57655e-013	-1.14733e-013	-1.07735e-013	-1.07739e-013	-9.37367e-014	-6.48439e-014	-5.78601e-014	-8.68049e-014	-5.08938e-014	-5.091e-014	-3.69542e-014	-7.29146e-014	-3.0016e-014	5.88886e-015	-3.00609e-014	
FineR155	-2.64564e-013	-2.86351e-013	-2.50482e-013	-2.43443e-013	-2.07572e-013	-2.07588e-013	-1.57638e-013	-1.57653e-013	-1.43633e-013	-1.43652e-013	-1.0074e-013	-1.00757e-013	-9.37669e-014	-5.08777e-014	-5.08938e-014	-5.091e-014	-3.69542e-014	-3.69745e-014	-3.69949e-014	-2.30616e-014	1.9806e-014	
FineR156	-2.57522e-013	-2.86351e-013	-2.50482e-013	-2.07579e-013	-2.00545e-013	-1.64661e-013	-1.57638e-013	-1.57653e-013	-1.43633e-013	-1.14746e-013	-1.07754e-013	-1.00757e-013	-5.78601e-014	-1.00799e-013	-5.7884e-014	-4.39205e-014	-4.39388e-014	-2.99935e-014	-3.0016e-014	-2.30645e-014	-2.3089e-014	
FineR157	-2.93412e-013	-2.50471e-013	-2.50491e-013	-2.07579e-013	-1.71671e-013	-2.0056e-013	-1.64656e-013	-1.86524e-013	-1.50657e-013	-1.07739e-013	-1.07754e-013	-1.00757e-013	-1.00782e-013	-1.00799e-013	-5.08911e-014	-5.09072e-014	-7.98773e-014	-4.3957e-014	-3.69949e-014	5.88387e-015	-2.3089e-014	
FineR158	-2.57493e-013	-2.9339e-013	-2.57515e-013	-2.50473e-013	-2.07549e-013	-1.71683e-013	-1.64656e-013	-1.57637e-013	-1.50642e-013	-1.14746e-013	-1.50677e-013	-1.43678e-013	-1.00765e-013	-9.37972e-014	-9.38162e-014	-5.09072e-014	-5.09233e-014	-7.98956e-014	-3.69949e-014	-3.00399e-014	5.86634e-015	
FineR159	-3.00408e-013	-3.00428e-013	-2.21628e-013	-2.2164e-013	-2.14599e-013	-2.43459e-013	-2.43481e-013	-1.6467e-013	-1.57651e-013	-1.50659e-013	-1.43658e-013	-1.36664e-013	-1.00773e-013	-1.29701e-013	-9.38085e-014	-9.38275e-014	-8.68556e-014	-7.98956e-014	-7.29364e-014	-7.29617e-014	-3.00624e-014	
FineR160	-3.36296e-013	-3.00428e-013	-2.93379e-013	-2.50473e-013	-2.50464e-013	-2.07582e-013	-2.36459e-013	-1.93538e-013	-1.50642e-013	-1.86569e-013	-1.43658e-013	-1.43678e-013	-1.36686e-013	-1.36708e-013	-9.37972e-014	-5.09072e-014	-5.09233e-014	-4.39557e-014	-4.39739e-014	-3.70153e-014	-3.00624e-014	
MinCout:	-1.03107e-015	FineR:	144	FineC:	136

