	CoarseC0	CoarseC10	CoarseC20	CoarseC30	CoarseC40	CoarseC50	CoarseC60	CoarseC70	CoarseC80	CoarseC90	CoarseC100	CoarseC110	CoarseC120	CoarseC130	CoarseC140	CoarseC150	CoarseC160	CoarseC170	CoarseC180	CoarseC190	CoarseC200	CoarseC210	CoarseC220	CoarseC230	CoarseC240	CoarseC250	
CoarseR0	-2.57895e-010	-2.42506e-010	-2.31903e-010	-2.24182e-010	-2.18256e-010	-2.1382e-010	-2.10304e-010	-2.07636e-010	-2.05373e-010	-2.03871e-010	-2.03186e-010	-2.02537e-010	-2.02342e-010	-2.02902e-010	-2.0383e-010	-2.04701e-010	-2.05433e-010	-2.05787e-010	-2.05837e-010	-2.05644e-010	-2.05226e-010	-2.04509e-010	-2.03594e-010	-2.0262e-010	-2.01395e-010	-2.00073e-010	
CoarseR10	-1.85713e-010	-1.72871e-010	-1.64127e-010	-1.57575e-010	-1.52544e-010	-1.49415e-010	-1.47382e-010	-1.45961e-010	-1.45092e-010	-1.45215e-010	-1.46442e-010	-1.48213e-010	-1.49973e-010	-1.51676e-010	-1.53313e-010	-1.54746e-010	-1.56032e-010	-1.57126e-010	-1.58062e-010	-1.58813e-010	-1.59363e-010	-1.59798e-010	-1.60255e-010	-1.60782e-010	-1.6162e-010	-1.62291e-010	
CoarseR20	-1.31839e-010	-1.20906e-010	-1.13741e-010	-1.08749e-010	-1.05341e-010	-1.03046e-010	-1.01662e-010	-1.01757e-010	-1.03059e-010	-1.04804e-010	-1.06863e-010	-1.08959e-010	-1.11177e-010	-1.13481e-010	-1.1567e-010	-1.1786e-010	-1.1994e-010	-1.22043e-010	-1.24091e-010	-1.26241e-010	-1.28931e-010	-1.31862e-010	-1.34146e-010	-1.35991e-010	-1.3735e-010	-1.38369e-010	
CoarseR30	3.86846e-010	-8.11287e-011	-7.54054e-011	-7.14619e-011	-6.86712e-011	-6.75845e-011	-6.80718e-011	-6.92965e-011	-7.09563e-011	-7.29513e-011	-7.52518e-011	-7.77144e-011	-8.04089e-011	-8.32429e-011	-8.62282e-011	-8.93073e-011	-9.25322e-011	-9.63076e-011	-1.01245e-010	-1.05594e-010	-1.09227e-010	-1.12339e-010	-1.14773e-010	-1.16755e-010	-1.18294e-010	-1.19453e-010	
CoarseR40	4.11488e-010	4.04372e-010	-4.6013e-011	-4.28207e-011	-4.1526e-011	-4.15541e-011	-4.23906e-011	-4.36576e-011	-4.54115e-011	-4.76603e-011	-5.01472e-011	-5.31096e-011	-5.62624e-011	-5.97658e-011	-6.36488e-011	-6.81751e-011	-7.43042e-011	-8.02065e-011	-8.54005e-011	-8.97176e-011	-9.33657e-011	-9.64197e-011	-9.89655e-011	-1.01067e-010	-1.02757e-010	-1.04022e-010	
CoarseR50	3.34405e-010	3.68962e-010	-2.36642e-011	-2.17247e-011	-2.0987e-011	-2.10034e-011	-2.16984e-011	-2.30632e-011	-2.49452e-011	-2.72762e-011	-3.0159e-011	-3.35004e-011	-3.7372e-011	-4.18554e-011	-4.76842e-011	-5.51058e-011	-6.16306e-011	-6.73827e-011	-7.23034e-011	-7.64552e-011	-8.01107e-011	-8.31954e-011	-8.58211e-011	-8.79808e-011	-8.96927e-011	-9.11418e-011	
CoarseR60	3.4762e-010	3.74887e-010	4.04242e-010	-5.53953e-012	-4.64614e-012	-4.58669e-012	-5.21462e-012	-6.5732e-012	-8.50018e-012	-1.10359e-011	-1.42001e-011	-1.80686e-011	-2.27871e-011	-2.94465e-011	-3.75293e-011	-4.46842e-011	-5.09623e-011	-5.65026e-011	-6.13456e-011	-6.54855e-011	-6.90634e-011	-7.21485e-011	-7.47887e-011	-7.70022e-011	-7.88478e-011	-8.0367e-011	
CoarseR70	3.61512e-010	3.7847e-010	4.38386e-010	4.65051e-010	8.34367e-012	8.63377e-012	8.11057e-012	6.76303e-012	4.75398e-012	2.05907e-012	-1.37042e-012	-5.86023e-012	-1.23212e-011	-2.08028e-011	-2.86429e-011	-3.56091e-011	-4.16977e-011	-4.70841e-011	-5.19256e-011	-5.60598e-011	-5.95659e-011	-6.26982e-011	-6.53802e-011	-6.76098e-011	-6.9487e-011	-7.10468e-011	
CoarseR80	3.31244e-010	3.79609e-010	4.22397e-010	4.55202e-010	1.88396e-011	1.92167e-011	1.8817e-011	1.757e-011	1.55014e-011	1.26992e-011	8.91725e-012	3.4667e-012	-5.00187e-012	-1.32858e-011	-2.08008e-011	-2.75375e-011	-3.35142e-011	-3.88957e-011	-4.36064e-011	-4.76914e-011	-5.12437e-011	-5.43768e-011	-5.70679e-011	-5.94302e-011	-6.13683e-011	-6.30475e-011	
CoarseR90	3.3343e-010	3.76415e-010	4.1156e-010	4.29972e-010	2.73042e-011	2.78093e-011	2.75738e-011	2.64603e-011	2.44156e-011	2.14608e-011	1.72159e-011	1.0153e-011	1.63475e-012	-6.42214e-012	-1.37089e-011	-2.02972e-011	-2.62292e-011	-3.1465e-011	-3.62111e-011	-4.0309e-011	-4.39005e-011	-4.70461e-011	-4.97583e-011	-5.21639e-011	-5.42166e-011	-5.58804e-011	
CoarseR100	3.38844e-010	3.85898e-010	4.01231e-010	4.75906e-010	3.39474e-011	3.48022e-011	3.47606e-011	3.36672e-011	3.17871e-011	2.86216e-011	2.40287e-011	1.58971e-011	7.43141e-012	-2.90666e-013	-7.40415e-012	-1.38093e-011	-1.96388e-011	-2.48277e-011	-2.95676e-011	-3.3696e-011	-3.72843e-011	-4.06156e-011	-4.33416e-011	-4.5754e-011	-4.78074e-011	-4.96211e-011	
CoarseR110	3.63221e-010	4.15516e-010	4.2223e-010	4.44254e-010	3.93506e-011	4.04389e-011	4.05358e-011	3.96793e-011	3.78146e-011	3.46711e-011	2.94968e-011	2.10192e-011	1.28487e-011	5.25967e-012	-1.71421e-012	-8.06656e-012	-1.37665e-011	-1.89835e-011	-2.36751e-011	-2.77676e-011	-3.14141e-011	-3.46918e-011	-3.75977e-011	-4.00324e-011	-4.22577e-011	-4.4097e-011	
CoarseR120	3.73686e-010	4.07374e-010	3.96287e-010	4.30131e-010	4.35639e-011	4.48489e-011	4.51249e-011	4.44467e-011	4.27712e-011	3.96593e-011	3.41538e-011	2.56764e-011	1.76925e-011	1.02316e-011	3.34465e-012	-2.95982e-012	-8.57595e-012	-1.38286e-011	-1.84715e-011	-2.26252e-011	-2.63457e-011	-2.96662e-011	-3.2515e-011	-3.50065e-011	-3.73025e-011	-3.92358e-011	
CoarseR130	3.64109e-010	3.70907e-010	4.01893e-010	4.16313e-010	4.67386e-011	4.82488e-011	4.87624e-011	4.82835e-011	4.67799e-011	4.38105e-011	3.82872e-011	3.00363e-011	2.20949e-011	1.47012e-011	7.89428e-012	1.58609e-012	-3.98597e-012	-9.19371e-012	-1.38807e-011	-1.80549e-011	-2.18133e-011	-2.51841e-011	-2.81187e-011	-3.06799e-011	-3.29516e-011	-3.49957e-011	
CoarseR140	3.61884e-010	3.52413e-010	4.04213e-010	4.17745e-010	4.91637e-011	5.09207e-011	5.16868e-011	5.14227e-011	5.01143e-011	4.73319e-011	4.20109e-011	3.3853e-011	2.60924e-011	1.86946e-011	1.19694e-011	5.75285e-012	1.69852e-015	-5.1659e-012	-9.95812e-012	-1.40847e-011	-1.78612e-011	-2.13216e-011	-2.42462e-011	-2.69344e-011	-2.9236e-011	-3.12611e-011	
CoarseR150	3.34714e-010	3.42297e-010	3.72182e-010	4.04869e-010	5.09016e-011	5.28392e-011	5.37821e-011	5.37507e-011	5.26794e-011	5.02251e-011	4.52813e-011	3.73461e-011	2.96083e-011	2.23458e-011	1.55948e-011	9.31406e-012	3.58446e-012	-1.70093e-012	-6.45818e-012	-1.06889e-011	-1.44993e-011	-1.79336e-011	-2.09459e-011	-2.36616e-011	-2.6044e-011	-2.81287e-011	
CoarseR160	3.1849e-010	3.57142e-010	3.91318e-010	4.20451e-010	5.20735e-011	5.41828e-011	5.53072e-011	5.54367e-011	5.46426e-011	5.24193e-011	4.81188e-011	4.03746e-011	3.26999e-011	2.54464e-011	1.86617e-011	1.23362e-011	6.58512e-012	1.35125e-012	-3.50993e-012	-7.83039e-012	-1.16363e-011	-1.52111e-011	-1.82647e-011	-2.10176e-011	-2.33782e-011	-2.55682e-011	
CoarseR170	3.02893e-010	3.39583e-010	3.93478e-010	4.59532e-010	5.2749e-011	5.50528e-011	5.63185e-011	5.66906e-011	5.60764e-011	5.41206e-011	5.0407e-011	4.29995e-011	3.54404e-011	2.81233e-011	2.12564e-011	1.49281e-011	9.16028e-012	3.82563e-012	-1.02124e-012	-5.38588e-012	-9.34699e-012	-1.28456e-011	-1.60618e-011	-1.88077e-011	-2.13348e-011	-2.34658e-011	
CoarseR180	3.38341e-010	3.71975e-010	4.15884e-010	4.87457e-010	5.29621e-011	5.54008e-011	5.69043e-011	5.74538e-011	5.70483e-011	5.53622e-011	5.20793e-011	4.52656e-011	3.76518e-011	3.03615e-011	2.35022e-011	1.72092e-011	1.13429e-011	5.96788e-012	1.01151e-012	-3.42597e-012	-7.4254e-012	-1.10029e-011	-1.41804e-011	-1.70522e-011	-1.95817e-011	-2.17824e-011	
CoarseR190	3.44783e-010	3.98014e-010	4.26127e-010	5.34577e-010	5.28659e-011	5.54569e-011	5.72058e-011	5.788e-011	5.76016e-011	5.61714e-011	5.32463e-011	4.71718e-011	3.95636e-011	3.22661e-011	2.5383e-011	1.89537e-011	1.30463e-011	7.56187e-012	2.57644e-012	-1.84935e-012	-5.83571e-012	-9.55983e-012	-1.27685e-011	-1.56545e-011	-1.82142e-011	-2.05339e-011	
CoarseR200	3.70449e-010	4.26257e-010	4.51532e-010	5.31641e-010	5.25943e-011	5.52097e-011	5.70762e-011	5.79418e-011	5.77707e-011	5.6545e-011	5.39802e-011	4.86785e-011	4.11213e-011	3.37458e-011	2.6869e-011	2.03241e-011	1.43961e-011	8.91101e-012	3.75488e-012	-6.49129e-013	-4.74273e-012	-8.4481e-012	-1.17142e-011	-1.46685e-011	-1.72244e-011	-1.95972e-011	
CoarseR210	3.65759e-010	4.14934e-010	4.75333e-010	5.16729e-010	5.20806e-011	5.48583e-011	5.67524e-011	5.77387e-011	5.77062e-011	5.66788e-011	5.44105e-011	4.98197e-011	4.23205e-011	3.49434e-011	2.79378e-011	2.14009e-011	1.5442e-011	9.90056e-012	4.75598e-012	1.94409e-013	-3.9212e-012	-7.72718e-012	-1.10201e-011	-1.39522e-011	-1.66535e-011	-1.89274e-011	
CoarseR220	3.77935e-010	4.39957e-010	5.03928e-010	5.22749e-010	5.14002e-011	5.42541e-011	5.62316e-011	5.7302e-011	5.73642e-011	5.64849e-011	5.44791e-011	5.04993e-011	4.32783e-011	3.58592e-011	2.87767e-011	2.22105e-011	1.61635e-011	1.05598e-011	5.37274e-012	8.28081e-013	-3.41712e-012	-7.22957e-012	-1.05347e-011	-1.35485e-011	-1.61706e-011	-1.85625e-011	
CoarseR230	3.95582e-010	4.14085e-010	4.63726e-010	4.93817e-010	5.07228e-011	5.35821e-011	5.56104e-011	5.67303e-011	5.69699e-011	5.61935e-011	5.43399e-011	5.07633e-011	4.39631e-011	3.65095e-011	2.94224e-011	2.27238e-011	1.66149e-011	1.09467e-011	5.76205e-012	1.0869e-012	-3.10115e-012	-6.958e-012	-1.0387e-011	-1.33435e-011	-1.60232e-011	-1.84009e-011	
CoarseR240	3.85938e-010	4.39583e-010	4.72154e-010	5.12653e-010	4.98915e-011	5.28334e-011	5.49024e-011	5.61249e-011	5.63403e-011	5.57389e-011	5.40258e-011	5.073e-011	4.43474e-011	3.68303e-011	2.97016e-011	2.30338e-011	1.68697e-011	1.11251e-011	5.89276e-012	1.23053e-012	-3.07401e-012	-6.88213e-012	-1.03162e-011	-1.33735e-011	-1.60602e-011	-1.84075e-011	
CoarseR250	4.14576e-010	4.34484e-010	4.89078e-010	4.79139e-010	4.90516e-011	5.2048e-011	5.41917e-011	5.54264e-011	5.57448e-011	5.52349e-011	5.36176e-011	5.0536e-011	4.46525e-011	3.70763e-011	2.98862e-011	2.31531e-011	1.69609e-011	1.11867e-011	5.89405e-012	1.19868e-012	-3.121e-012	-6.99498e-012	-1.04572e-011	-1.35335e-011	-1.62431e-011	-1.86314e-011	
MinCout:	1.69852e-015	CoarseR:	140	CoarseC:	160

	CoarseC40	CoarseC41	CoarseC42	CoarseC43	CoarseC44	CoarseC45	CoarseC46	CoarseC47	CoarseC48	CoarseC49	CoarseC50	CoarseC51	CoarseC52	CoarseC53	CoarseC54	CoarseC55	CoarseC56	CoarseC57	CoarseC58	CoarseC59	CoarseC60	
CoarseR50	-2.08962e-011	-2.08517e-011	-2.08596e-011	-2.08064e-011	-2.08004e-011	-2.08016e-011	-2.07566e-011	-2.07772e-011	-2.08404e-011	-2.08196e-011	-2.08709e-011	-2.09266e-011	-2.09312e-011	-2.09835e-011	-2.09962e-011	-2.10673e-011	-2.1154e-011	-2.12758e-011	-2.13894e-011	-2.14651e-011	-2.15318e-011	
CoarseR51	-1.91963e-011	-1.91162e-011	-1.90889e-011	-1.90493e-011	-1.90482e-011	-1.90458e-011	-1.90081e-011	-1.90549e-011	-1.90587e-011	-1.9091e-011	-1.91492e-011	-1.91592e-011	-1.9176e-011	-1.92652e-011	-1.93234e-011	-1.93588e-011	-1.94088e-011	-1.94524e-011	-1.95727e-011	-1.96939e-011	-1.97649e-011	
CoarseR52	-1.73983e-011	-1.7363e-011	-1.73393e-011	-1.73156e-011	-1.72876e-011	-1.72901e-011	-1.73275e-011	-1.73086e-011	-1.72991e-011	-1.73063e-011	-1.73668e-011	-1.73916e-011	-1.74538e-011	-1.74643e-011	-1.75294e-011	-1.7569e-011	-1.76567e-011	-1.76648e-011	-1.7787e-011	-1.78313e-011	-1.79975e-011	
CoarseR53	-1.5687e-011	-1.56858e-011	-1.56294e-011	-1.56085e-011	-1.55684e-011	-1.55844e-011	-1.55565e-011	-1.55823e-011	-1.55879e-011	-1.55798e-011	-1.56146e-011	-1.5644e-011	-1.57109e-011	-1.56954e-011	-1.57554e-011	-1.5848e-011	-1.58988e-011	-1.59915e-011	-1.60375e-011	-1.61273e-011	-1.62162e-011	
CoarseR54	-1.4045e-011	-1.39999e-011	-1.39976e-011	-1.39346e-011	-1.39568e-011	-1.39182e-011	-1.39036e-011	-1.38916e-011	-1.39358e-011	-1.39022e-011	-1.39314e-011	-1.40062e-011	-1.39983e-011	-1.40263e-011	-1.40682e-011	-1.41241e-011	-1.42105e-011	-1.42598e-011	-1.43502e-011	-1.44845e-011	-1.45373e-011	
CoarseR55	-1.23765e-011	-1.23149e-011	-1.22771e-011	-1.22489e-011	-1.22273e-011	-1.22019e-011	-1.22244e-011	-1.22269e-011	-1.22016e-011	-1.22539e-011	-1.22892e-011	-1.22956e-011	-1.23232e-011	-1.23069e-011	-1.24341e-011	-1.24546e-011	-1.25215e-011	-1.2624e-011	-1.2709e-011	-1.27996e-011	-1.28967e-011	
CoarseR56	-1.07568e-011	-1.07499e-011	-1.06573e-011	-1.06531e-011	-1.0605e-011	-1.06161e-011	-1.06331e-011	-1.05993e-011	-1.06023e-011	-1.06371e-011	-1.06347e-011	-1.06862e-011	-1.07669e-011	-1.07647e-011	-1.0798e-011	-1.08639e-011	-1.09263e-011	-1.10091e-011	-1.10671e-011	-1.11939e-011	-1.12949e-011	
CoarseR57	-9.19993e-012	-9.11682e-012	-9.1296e-012	-9.0901e-012	-9.06755e-012	-9.02112e-012	-9.04295e-012	-9.06278e-012	-9.03811e-012	-9.09144e-012	-9.14252e-012	-9.1496e-012	-9.20368e-012	-9.23647e-012	-9.2516e-012	-9.27975e-012	-9.34746e-012	-9.41744e-012	-9.5199e-012	-9.58595e-012	-9.68281e-012	
CoarseR58	-7.67544e-012	-7.56517e-012	-7.53389e-012	-7.54793e-012	-7.49989e-012	-7.43943e-012	-7.44389e-012	-7.44097e-012	-7.47041e-012	-7.41501e-012	-7.46209e-012	-7.56471e-012	-7.57326e-012	-7.61894e-012	-7.67095e-012	-7.70341e-012	-7.74274e-012	-7.82515e-012	-7.93278e-012	-8.00293e-012	-8.15212e-012	
CoarseR59	-6.14015e-012	-6.17829e-012	-6.06976e-012	-5.98896e-012	-5.98603e-012	-5.98936e-012	-5.94853e-012	-5.92737e-012	-5.96157e-012	-5.95125e-012	-6.00248e-012	-6.01848e-012	-6.11279e-012	-6.12321e-012	-6.14671e-012	-6.22435e-012	-6.30007e-012	-6.3462e-012	-6.40808e-012	-6.49029e-012	-6.59516e-012	
CoarseR60	-4.6808e-012	-4.65087e-012	-4.58851e-012	-4.48059e-012	-4.48237e-012	-4.53133e-012	-4.48574e-012	-4.46923e-012	-4.44447e-012	-4.51983e-012	-4.49356e-012	-4.55518e-012	-4.53079e-012	-4.66759e-012	-4.68727e-012	-4.73663e-012	-4.81623e-012	-4.85839e-012	-4.93221e-012	-4.96979e-012	-5.12722e-012	
CoarseR61	-3.27382e-012	-3.25818e-012	-3.15926e-012	-3.1288e-012	-3.0717e-012	-3.06535e-012	-3.08392e-012	-3.03038e-012	-3.06446e-012	-3.07218e-012	-3.05003e-012	-3.0832e-012	-3.10454e-012	-3.16391e-012	-3.22774e-012	-3.28156e-012	-3.3158e-012	-3.4118e-012	-3.48946e-012	-3.6126e-012	-3.65171e-012	
CoarseR62	-1.82794e-012	-1.75736e-012	-1.71329e-012	-1.68752e-012	-1.66675e-012	-1.60135e-012	-1.62454e-012	-1.65681e-012	-1.62261e-012	-1.61667e-012	-1.63976e-012	-1.63641e-012	-1.70287e-012	-1.69317e-012	-1.794e-012	-1.85148e-012	-1.90635e-012	-1.95731e-012	-2.0475e-012	-2.16652e-012	-2.24145e-012	
CoarseR63	-5.08739e-013	-3.91321e-013	-3.83761e-013	-3.31016e-013	-3.14768e-013	-2.9473e-013	-2.30839e-013	-3.07927e-013	-2.69095e-013	-2.44892e-013	-2.39956e-013	-2.72834e-013	-3.43566e-013	-3.37919e-013	-4.51711e-013	-4.63194e-013	-5.63242e-013	-6.26665e-013	-7.11859e-013	-7.60938e-013	-8.89491e-013	
CoarseR64	9.28082e-013	9.39883e-013	9.84047e-013	1.03242e-012	1.05365e-012	1.11038e-012	1.07868e-012	1.12054e-012	1.06386e-012	1.09274e-012	1.09352e-012	1.09753e-012	1.06381e-012	9.9199e-013	9.47008e-013	9.22952e-013	8.77749e-013	8.0165e-013	6.79585e-013	5.76492e-013	5.26544e-013	
CoarseR65	2.2188e-012	2.23616e-012	2.26581e-012	2.35116e-012	2.36804e-012	2.38882e-012	2.3845e-012	2.38127e-012	2.36154e-012	2.38623e-012	2.38339e-012	2.3835e-012	2.33656e-012	2.3022e-012	2.27082e-012	2.19268e-012	2.13524e-012	2.06378e-012	2.01214e-012	1.92226e-012	1.81848e-012	
CoarseR66	3.47561e-012	3.53013e-012	3.59529e-012	3.59437e-012	3.64823e-012	3.65509e-012	3.71513e-012	3.66712e-012	3.72557e-012	3.70491e-012	3.73871e-012	3.67558e-012	3.6747e-012	3.59507e-012	3.55074e-012	3.56848e-012	3.49842e-012	3.42313e-012	3.32582e-012	3.26532e-012	3.17461e-012	
CoarseR67	4.73729e-012	4.74603e-012	4.88961e-012	4.88422e-012	4.88251e-012	4.94535e-012	4.94112e-012	4.98158e-012	4.99441e-012	4.92816e-012	4.99059e-012	4.97319e-012	4.93637e-012	4.87584e-012	4.83635e-012	4.80083e-012	4.73558e-012	4.68818e-012	4.58811e-012	4.53149e-012	4.46947e-012	
CoarseR68	5.96134e-012	6.00857e-012	6.02303e-012	6.13677e-012	6.14062e-012	6.10828e-012	6.14994e-012	6.20894e-012	6.17684e-012	6.18866e-012	6.17364e-012	6.20283e-012	6.18549e-012	6.1302e-012	6.07757e-012	6.00565e-012	5.9279e-012	5.92725e-012	5.86465e-012	5.75446e-012	5.68886e-012	
CoarseR69	7.15043e-012	7.22381e-012	7.28658e-012	7.31285e-012	7.34496e-012	7.34913e-012	7.38653e-012	7.40979e-012	7.42402e-012	7.42343e-012	7.40441e-012	7.3883e-012	7.40835e-012	7.35752e-012	7.2924e-012	7.21671e-012	7.17686e-012	7.0808e-012	7.09701e-012	6.97488e-012	6.9226e-012	
CoarseR70	8.33478e-012	8.37271e-012	8.46241e-012	8.44391e-012	8.52243e-012	8.54404e-012	8.54647e-012	8.5653e-012	8.60729e-012	8.61133e-012	8.58966e-012	8.56042e-012	8.55322e-012	8.54083e-012	8.55439e-012	8.46555e-012	8.42209e-012	8.36389e-012	8.2526e-012	8.21804e-012	8.14522e-012	
MinCout:	-2.30839e-013	CoarseR:	63	CoarseC:	46

	FineC0	FineC10	FineC20	FineC30	FineC40	FineC50	FineC60	FineC70	FineC80	FineC90	FineC100	FineC110	FineC120	FineC130	FineC140	FineC150	FineC160	FineC170	FineC180	FineC190	FineC200	FineC210	FineC220	FineC230	FineC240	FineC250	
FineR0	-1.81039e-011	-1.17033e-011	-8.33279e-012	-6.40631e-012	-4.96539e-012	-3.95855e-012	-3.10214e-012	-2.47374e-012	-1.92544e-012	-1.5693e-012	-1.1436e-012	-8.21429e-013	-5.40063e-013	-3.81613e-013	-1.73157e-013	-2.93157e-014	9.67168e-014	2.726e-013	3.9861e-013	5.33229e-013	6.18008e-013	6.70133e-013	7.13436e-013	7.97998e-013	8.49879e-013	8.93252e-013	
FineR10	-1.79877e-011	-1.28058e-011	-8.33353e-012	-6.3859e-012	-4.98587e-012	-3.94888e-012	-3.05226e-012	-2.4644e-012	-1.95715e-012	-1.55102e-012	-1.16619e-012	-8.44362e-013	-5.63165e-013	-3.54844e-013	-2.3757e-013	-2.0497e-014	1.14302e-013	2.40174e-013	3.74813e-013	5.007e-013	5.853e-013	6.87258e-013	7.21943e-013	7.73869e-013	8.17175e-013	8.19124e-013	
FineR20	-1.79927e-011	-1.30571e-011	-8.32216e-012	-6.3859e-012	-5.02575e-012	-3.93922e-012	-3.09266e-012	-2.45506e-012	-1.94769e-012	-1.51024e-012	-1.157e-012	-8.44362e-013	-5.63165e-013	-3.54886e-013	-1.78792e-013	-1.16783e-014	1.14302e-013	2.90132e-013	3.8356e-013	5.007e-013	5.94161e-013	6.87378e-013	7.21943e-013	7.82556e-013	8.17175e-013	8.69204e-013	
FineR30	-1.8003e-011	-1.30708e-011	-8.31154e-012	-6.3859e-012	-4.94561e-012	-3.93922e-012	-3.08318e-012	-2.45506e-012	-1.90699e-012	-1.50092e-012	-1.15714e-012	-8.44362e-013	-6.04138e-013	-3.54886e-013	-2.28716e-013	-5.27923e-014	1.14302e-013	2.90132e-013	3.74813e-013	5.18068e-013	6.35301e-013	6.87378e-013	7.39198e-013	7.82556e-013	8.25855e-013	8.27801e-013	
FineR40	-1.80749e-011	-1.18957e-011	-8.3229e-012	-6.3757e-012	-4.98587e-012	-3.93922e-012	-3.08318e-012	-2.45506e-012	-1.94769e-012	-1.50111e-012	-1.14794e-012	-8.35268e-013	-5.63165e-013	-3.45957e-013	-2.19862e-013	-1.16783e-014	1.14302e-013	2.4894e-013	3.8356e-013	5.09429e-013	5.61494e-013	6.87378e-013	6.98066e-013	7.82556e-013	8.17175e-013	8.27801e-013	
FineR50	-1.81635e-011	-1.30708e-011	-8.31154e-012	-6.36489e-012	-5.02575e-012	-3.93922e-012	-3.12369e-012	-2.45506e-012	-1.94769e-012	-1.50092e-012	-1.15714e-012	-8.44362e-013	-5.63165e-013	-3.54886e-013	-2.28716e-013	-1.16783e-014	1.14302e-013	2.90132e-013	3.8356e-013	5.09429e-013	5.52876e-013	6.87378e-013	7.30637e-013	7.82556e-013	8.67239e-013	9.10337e-013	
FineR60	-1.81723e-011	-1.31863e-011	-8.31154e-012	-6.33623e-012	-4.94561e-012	-3.89905e-012	-3.093e-012	-2.45506e-012	-1.95715e-012	-1.50111e-012	-1.15714e-012	-8.35372e-013	-5.54229e-013	-3.8697e-013	-1.87665e-013	-1.16783e-014	1.23094e-013	2.4894e-013	3.8356e-013	5.09429e-013	5.94161e-013	6.87378e-013	7.39198e-013	7.82556e-013	8.25855e-013	8.69204e-013	
FineR70	-1.81635e-011	-1.18561e-011	-8.31154e-012	-6.3757e-012	-4.94561e-012	-3.93922e-012	-3.08318e-012	-2.45506e-012	-1.90721e-012	-1.49197e-012	-1.15714e-012	-8.44468e-013	-5.54229e-013	-3.54886e-013	-1.78792e-013	-2.85958e-015	1.23094e-013	2.98898e-013	4.24857e-013	5.59417e-013	6.35409e-013	6.87378e-013	7.39331e-013	7.82698e-013	8.67239e-013	9.10505e-013	
FineR80	-1.81041e-011	-1.30959e-011	-8.31227e-012	-6.33683e-012	-4.94611e-012	-3.89947e-012	-3.093e-012	-2.41478e-012	-1.90721e-012	-1.49197e-012	-1.11643e-012	-8.35372e-013	-5.54229e-013	-3.0497e-013	-1.37743e-013	-2.85958e-015	1.23094e-013	2.90132e-013	4.16108e-013	5.50688e-013	6.44015e-013	6.87378e-013	7.8067e-013	7.82698e-013	8.67239e-013	9.10505e-013	
FineR90	-1.81254e-011	-1.30959e-011	-8.28298e-012	-6.3757e-012	-4.93572e-012	-3.93922e-012	-3.08318e-012	-2.44572e-012	-1.91644e-012	-1.50111e-012	-1.15714e-012	-8.35372e-013	-5.54229e-013	-3.13859e-013	-1.78792e-013	-2.85958e-015	1.23094e-013	2.90132e-013	3.8356e-013	5.09429e-013	6.44015e-013	6.87378e-013	7.8067e-013	8.24063e-013	8.67239e-013	8.69367e-013	
FineR100	-1.82001e-011	-1.31466e-011	-8.31227e-012	-6.3757e-012	-4.94561e-012	-3.93922e-012	-3.08318e-012	-2.44572e-012	-1.89776e-012	-1.50111e-012	-1.10723e-012	-7.94456e-013	-5.54229e-013	-3.54886e-013	-1.37743e-013	-2.85958e-015	1.23094e-013	2.90132e-013	3.7488e-013	5.09429e-013	6.44015e-013	6.87378e-013	7.39331e-013	7.91242e-013	8.67239e-013	8.69367e-013	
FineR110	-1.81774e-011	-1.3172e-011	-8.31227e-012	-6.33623e-012	-4.93572e-012	-3.88939e-012	-3.08318e-012	-2.41473e-012	-1.90721e-012	-1.49197e-012	-1.14808e-012	-8.35372e-013	-5.54229e-013	-3.45997e-013	-1.78815e-013	-2.85958e-015	1.23094e-013	2.90132e-013	4.33529e-013	5.09429e-013	6.44015e-013	6.87378e-013	7.71977e-013	7.82556e-013	8.25855e-013	9.0183e-013	
FineR120	-1.81774e-011	-1.18464e-011	-8.31227e-012	-6.33623e-012	-4.93572e-012	-3.88939e-012	-3.08352e-012	-2.44572e-012	-1.90721e-012	-1.50111e-012	-1.15714e-012	-8.35372e-013	-5.54229e-013	-3.54886e-013	-1.87665e-013	-1.16783e-014	1.23094e-013	2.90132e-013	4.24783e-013	5.09429e-013	6.44015e-013	6.87378e-013	7.30637e-013	7.7401e-013	8.67239e-013	9.10505e-013	
FineR130	-1.82001e-011	-1.31844e-011	-8.3229e-012	-6.33623e-012	-4.93572e-012	-3.88939e-012	-3.08318e-012	-2.45506e-012	-1.90721e-012	-1.49197e-012	-1.15728e-012	-8.35372e-013	-5.54229e-013	-3.54886e-013	-1.78792e-013	-1.1671e-014	1.23094e-013	2.90132e-013	4.24857e-013	5.59417e-013	6.44015e-013	6.87378e-013	7.30637e-013	7.82556e-013	8.67239e-013	8.69204e-013	
FineR140	-1.81913e-011	-1.18561e-011	-8.31154e-012	-6.3757e-012	-4.93572e-012	-3.88939e-012	-3.08318e-012	-2.44572e-012	-1.90721e-012	-1.50111e-012	-1.10723e-012	-8.35372e-013	-5.54229e-013	-3.3707e-013	-1.78792e-013	-1.16783e-014	1.23094e-013	2.98898e-013	4.24857e-013	5.09555e-013	6.44015e-013	7.37396e-013	7.39531e-013	7.82698e-013	8.67239e-013	9.10505e-013	
FineR150	-1.81013e-011	-1.18324e-011	-8.31227e-012	-6.3757e-012	-4.94561e-012	-3.93922e-012	-3.08318e-012	-2.45506e-012	-1.89776e-012	-1.50111e-012	-1.11629e-012	-8.35372e-013	-5.54229e-013	-3.54886e-013	-1.78792e-013	-1.16783e-014	1.23094e-013	2.90132e-013	4.16108e-013	5.50688e-013	6.0288e-013	6.87378e-013	7.39331e-013	7.82698e-013	8.67239e-013	8.69367e-013	
FineR160	-1.82734e-011	-1.18683e-011	-8.31227e-012	-6.3757e-012	-4.93572e-012	-3.88917e-012	-3.08318e-012	-2.40511e-012	-1.90721e-012	-1.50111e-012	-1.10723e-012	-8.35372e-013	-5.54229e-013	-3.0497e-013	-1.37743e-013	-2.85958e-015	1.23094e-013	2.90132e-013	3.8356e-013	5.09429e-013	6.0288e-013	6.87378e-013	7.30637e-013	7.82698e-013	8.67239e-013	9.1901e-013	
FineR170	-1.81357e-011	-1.1818e-011	-8.3229e-012	-6.33623e-012	-4.93572e-012	-3.88939e-012	-3.08318e-012	-2.45506e-012	-1.91644e-012	-1.50111e-012	-1.10723e-012	-8.35372e-013	-5.54229e-013	-3.0497e-013	-1.78792e-013	-1.16783e-014	1.23094e-013	2.90132e-013	4.24783e-013	5.09429e-013	6.0288e-013	6.87378e-013	7.8067e-013	8.24063e-013	8.7592e-013	8.77881e-013	
FineR180	-1.81292e-011	-1.18941e-011	-8.3229e-012	-6.33623e-012	-4.93572e-012	-3.92956e-012	-3.093e-012	-2.41473e-012	-1.90721e-012	-1.50111e-012	-1.11643e-012	-7.94456e-013	-5.63236e-013	-3.0497e-013	-1.37743e-013	-2.85958e-015	1.23094e-013	2.90132e-013	4.16108e-013	5.09429e-013	6.44015e-013	6.96082e-013	7.39331e-013	7.82556e-013	8.67239e-013	8.69367e-013	
FineR190	-1.81686e-011	-1.18561e-011	-8.31154e-012	-6.3757e-012	-4.93572e-012	-3.89947e-012	-3.08318e-012	-2.40511e-012	-1.90721e-012	-1.50111e-012	-1.10723e-012	-8.35372e-013	-5.54229e-013	-3.13859e-013	-1.78792e-013	-1.16783e-014	1.23094e-013	2.90132e-013	4.16108e-013	5.50688e-013	6.44015e-013	7.28691e-013	7.8067e-013	8.32602e-013	8.58714e-013	8.60688e-013	
FineR200	-1.81241e-011	-1.17944e-011	-8.27235e-012	-6.33623e-012	-4.93572e-012	-3.849e-012	-3.08318e-012	-2.44572e-012	-1.90721e-012	-1.50111e-012	-1.11629e-012	-8.35372e-013	-5.54229e-013	-3.45997e-013	-1.78792e-013	-2.04918e-014	1.64185e-013	2.90132e-013	4.24783e-013	5.50688e-013	6.0288e-013	7.37396e-013	7.39331e-013	8.24063e-013	8.67239e-013	9.10505e-013	
FineR210	-1.81886e-011	-1.18683e-011	-8.3229e-012	-6.3757e-012	-4.93572e-012	-3.88939e-012	-3.0737e-012	-2.37416e-012	-1.90721e-012	-1.45119e-012	-1.11643e-012	-7.94456e-013	-5.22258e-013	-3.0497e-013	-9.66699e-014	3.82544e-014	1.55486e-013	2.98898e-013	4.16108e-013	5.59417e-013	6.44015e-013	6.87378e-013	7.8067e-013	8.15375e-013	8.7592e-013	9.10505e-013	
FineR220	-1.81153e-011	-1.31857e-011	-8.27235e-012	-6.33623e-012	-4.93572e-012	-3.849e-012	-3.093e-012	-2.40511e-012	-1.90721e-012	-1.49197e-012	-1.11643e-012	-8.03549e-013	-5.63236e-013	-3.0497e-013	-1.78792e-013	-1.1671e-014	1.23094e-013	2.90132e-013	4.16108e-013	5.50688e-013	6.44015e-013	6.87378e-013	7.39331e-013	7.82698e-013	8.67239e-013	9.0183e-013	
FineR230	-1.81913e-011	-1.1946e-011	-8.3229e-012	-6.3757e-012	-4.93572e-012	-3.92956e-012	-3.0737e-012	-2.40511e-012	-1.90721e-012	-1.50111e-012	-1.11629e-012	-8.35372e-013	-5.54229e-013	-3.0497e-013	-1.37743e-013	-1.1671e-014	1.23094e-013	2.90132e-013	4.16108e-013	5.09429e-013	6.44015e-013	6.87378e-013	7.30637e-013	7.82698e-013	8.25855e-013	9.0183e-013	
FineR240	-1.81268e-011	-1.18704e-011	-8.3229e-012	-6.33623e-012	-4.93572e-012	-3.88939e-012	-3.08318e-012	-2.45506e-012	-1.90721e-012	-1.50111e-012	-1.14808e-012	-8.35372e-013	-5.54229e-013	-3.0497e-013	-1.37743e-013	-1.1671e-014	1.14328e-013	2.90132e-013	4.24783e-013	5.09429e-013	6.44015e-013	6.87378e-013	7.8067e-013	8.24063e-013	8.67239e-013	9.10505e-013	
FineR250	-1.81519e-011	-1.1857e-011	-8.31227e-012	-6.33623e-012	-4.93572e-012	-3.88917e-012	-3.08318e-012	-2.41473e-012	-1.90721e-012	-1.50111e-012	-1.11629e-012	-7.94456e-013	-5.54229e-013	-3.0497e-013	-1.37743e-013	-2.85958e-015	1.23094e-013	2.90132e-013	4.24857e-013	5.50688e-013	6.44015e-013	6.87378e-013	7.30637e-013	7.82698e-013	8.67239e-013	9.0183e-013	
MinCout:	-2.85958e-015	FineR:	70	FineC:	150

	FineC130	FineC131	FineC132	FineC133	FineC134	FineC135	FineC136	FineC137	FineC138	FineC139	FineC140	FineC141	FineC142	FineC143	FineC144	FineC145	FineC146	FineC147	FineC148	FineC149	FineC150	
FineR0	-3.13859e-013	-3.04975e-013	-2.96134e-013	-2.87267e-013	-2.55143e-013	-1.96378e-013	-2.4632e-013	-1.96449e-013	-1.46543e-013	-1.46575e-013	-1.37743e-013	-1.2892e-013	-1.2893e-013	-1.20114e-013	-7.90935e-014	-3.80292e-014	-2.92278e-014	-6.14982e-014	-2.04302e-014	-2.0461e-014	-1.16783e-014	
FineR1	-3.13859e-013	-3.04975e-013	-2.96101e-013	-2.96144e-013	-2.96188e-013	-2.3741e-013	-2.37452e-013	-1.96449e-013	-1.554e-013	-1.87607e-013	-1.37743e-013	-1.37777e-013	-1.28956e-013	-8.79045e-014	-7.90935e-014	-7.91258e-014	-2.92278e-014	-7.03278e-014	-6.15356e-014	-2.0461e-014	-1.16783e-014	
FineR2	-3.13859e-013	-3.04975e-013	-3.05017e-013	-2.96144e-013	-2.55143e-013	-2.3741e-013	-2.4632e-013	-2.28606e-013	-1.87607e-013	-1.46575e-013	-1.37743e-013	-1.2892e-013	-1.2893e-013	-7.90612e-014	-1.20153e-013	-1.11348e-013	-2.92278e-014	-7.03278e-014	-6.15356e-014	-2.0461e-014	-1.16783e-014	
FineR3	-3.54886e-013	-3.04975e-013	-3.05017e-013	-2.96144e-013	-2.96188e-013	-2.46281e-013	-1.96414e-013	-2.28606e-013	-1.87588e-013	-1.46575e-013	-1.37743e-013	-1.37765e-013	-1.28956e-013	-1.20114e-013	-7.90935e-014	-7.91258e-014	-2.92278e-014	-6.14982e-014	-6.15356e-014	-2.0461e-014	-1.16783e-014	
FineR4	-3.13859e-013	-3.04975e-013	-3.05017e-013	-2.96144e-013	-2.96188e-013	-2.46293e-013	-2.37452e-013	-1.96428e-013	-1.46543e-013	-1.37709e-013	-1.37743e-013	-1.2892e-013	-8.78747e-014	-8.79045e-014	-7.90935e-014	-1.20192e-013	-2.92278e-014	-7.03278e-014	-2.04302e-014	-2.0461e-014	-1.16783e-014	
FineR5	-3.13859e-013	-3.04975e-013	-3.05017e-013	-2.87267e-013	-2.46268e-013	-2.05267e-013	-2.05277e-013	-1.96449e-013	-1.46543e-013	-1.46575e-013	-1.37743e-013	-1.37777e-013	-8.78747e-014	-7.90612e-014	-7.90935e-014	-2.91995e-014	-2.92278e-014	-2.9256e-014	-2.04302e-014	-1.16377e-014	-1.16783e-014	
FineR6	-3.0497e-013	-3.04975e-013	-3.05017e-013	-2.96144e-013	-2.46268e-013	-2.05267e-013	-2.37452e-013	-2.28606e-013	-1.46543e-013	-1.37709e-013	-1.37743e-013	-1.37777e-013	-8.78747e-014	-8.79045e-014	-7.90935e-014	-7.02916e-014	-7.0293e-014	-7.03278e-014	-2.04302e-014	-1.16377e-014	3.82544e-014	
FineR7	-3.0497e-013	-3.13898e-013	-2.55098e-013	-2.55143e-013	-2.46268e-013	-2.05267e-013	-1.96414e-013	-1.96449e-013	-1.46543e-013	-1.46575e-013	-1.37743e-013	-9.66972e-014	-8.78747e-014	-8.79045e-014	-7.90935e-014	-3.80292e-014	-2.92278e-014	-2.03942e-014	-2.04302e-014	2.94357e-014	2.94357e-014	
FineR8	-3.13859e-013	-3.04975e-013	-2.55069e-013	-2.96144e-013	-2.46268e-013	-2.46308e-013	-2.05277e-013	-1.55387e-013	-1.46543e-013	-1.46575e-013	-1.37743e-013	-9.66972e-014	-8.78747e-014	-8.79045e-014	-7.90935e-014	-2.91995e-014	-7.0293e-014	-7.03278e-014	-2.04302e-014	-1.16377e-014	3.82544e-014	
FineR9	-3.0497e-013	-2.96091e-013	-2.55098e-013	-2.55135e-013	-2.46268e-013	-2.3741e-013	-1.96399e-013	-1.55387e-013	-1.87588e-013	-1.37709e-013	-9.66699e-014	-9.66972e-014	-8.78747e-014	-8.79045e-014	-1.20153e-013	-7.90969e-014	-6.14602e-014	-2.03942e-014	-2.04302e-014	-2.0461e-014	2.94357e-014	
FineR10	-3.04934e-013	-3.04975e-013	-2.46189e-013	-2.46229e-013	-2.46241e-013	-2.05244e-013	-2.4632e-013	-2.28606e-013	-1.46543e-013	-1.46575e-013	-1.37743e-013	-9.66972e-014	-1.2893e-013	-8.79045e-014	-3.80034e-014	-2.91963e-014	-7.0293e-014	-2.03942e-014	-2.04302e-014	-1.16377e-014	2.94357e-014	
FineR11	-3.04934e-013	-3.04975e-013	-2.6398e-013	-2.46229e-013	-2.46268e-013	-2.3741e-013	-2.4632e-013	-1.96434e-013	-1.87588e-013	-1.78751e-013	-1.37743e-013	-1.28893e-013	-8.78747e-014	-8.78801e-014	-3.80034e-014	-7.90969e-014	-2.92278e-014	-2.92246e-014	-2.04302e-014	-2.0461e-014	2.94357e-014	
FineR12	-3.0497e-013	-2.96091e-013	-2.46189e-013	-2.46229e-013	-2.46268e-013	-2.46308e-013	-1.96399e-013	-1.96434e-013	-1.46543e-013	-1.46575e-013	-9.66699e-014	-1.37777e-013	-8.78747e-014	-8.79045e-014	-7.90935e-014	-7.90969e-014	-2.03635e-014	-7.03278e-014	-1.16044e-014	-1.16377e-014	2.94357e-014	
FineR13	-3.0497e-013	-3.04975e-013	-2.96134e-013	-2.46229e-013	-2.46268e-013	-2.46308e-013	-2.37452e-013	-1.8755e-013	-1.46543e-013	-1.87626e-013	-1.37721e-013	-9.66972e-014	-8.78747e-014	-8.79045e-014	-3.80034e-014	-3.80292e-014	-7.0293e-014	-2.03942e-014	-2.04302e-014	-1.16377e-014	3.82544e-014	
FineR14	-3.13859e-013	-3.04975e-013	-2.6398e-013	-2.46229e-013	-2.46268e-013	-2.46308e-013	-1.96399e-013	-1.96434e-013	-1.46543e-013	-1.46575e-013	-1.37743e-013	-9.66972e-014	-8.78747e-014	-8.79045e-014	-7.02247e-014	-3.80292e-014	-7.0293e-014	2.06751e-014	2.94624e-014	-2.0461e-014	3.82544e-014	
FineR15	-3.0497e-013	-2.55061e-013	-2.55098e-013	-2.14099e-013	-2.46268e-013	-1.96378e-013	-1.96399e-013	-1.55387e-013	-1.46543e-013	-1.46575e-013	-9.66699e-014	-1.37777e-013	-8.78801e-014	-4.68165e-014	-3.80023e-014	-2.91963e-014	-3.80549e-014	-2.92246e-014	-1.16044e-014	-1.16377e-014	3.82544e-014	
FineR16	-3.0497e-013	-3.05011e-013	-2.96134e-013	-2.55135e-013	-2.46268e-013	-2.46308e-013	-1.96399e-013	-1.96434e-013	-1.46543e-013	-1.46575e-013	-1.37743e-013	-9.66972e-014	-8.78747e-014	-8.79045e-014	-7.02247e-014	-7.02595e-014	-2.92278e-014	2.06751e-014	-2.0425e-014	-1.16377e-014	2.94475e-014	
FineR17	-3.0497e-013	-3.05011e-013	-2.55098e-013	-2.55135e-013	-2.05234e-013	-2.05267e-013	-1.96414e-013	-1.8755e-013	-1.87588e-013	-1.46575e-013	-9.66699e-014	-9.66972e-014	-8.78747e-014	-7.90646e-014	-3.80023e-014	-3.80292e-014	-2.03995e-014	-7.03278e-014	-2.04302e-014	-1.16377e-014	3.82544e-014	
FineR18	-3.0497e-013	-2.96091e-013	-2.55098e-013	-2.55135e-013	-2.46268e-013	-2.05267e-013	-1.96414e-013	-1.55387e-013	-1.55416e-013	-1.46575e-013	-9.66699e-014	-9.66972e-014	-8.78747e-014	-7.90646e-014	-2.91681e-014	-2.91963e-014	-2.92278e-014	2.06751e-014	-2.0425e-014	-1.16377e-014	2.94475e-014	
FineR19	-3.0497e-013	-3.05011e-013	-2.55098e-013	-2.55135e-013	-2.46268e-013	-2.46308e-013	-2.053e-013	-1.55387e-013	-1.46543e-013	-1.46575e-013	-1.37743e-013	-1.37777e-013	-8.78747e-014	-8.79045e-014	-7.90969e-014	-3.80292e-014	-2.03995e-014	-6.14975e-014	-1.16044e-014	-1.16377e-014	2.94475e-014	
FineR20	-3.0497e-013	-3.05011e-013	-2.96134e-013	-2.55135e-013	-2.46268e-013	-2.46308e-013	-1.96399e-013	-1.96434e-013	-1.37687e-013	-1.46575e-013	-8.78205e-014	-8.78503e-014	-8.78801e-014	-8.79045e-014	-3.80034e-014	-7.02595e-014	-2.92246e-014	-2.03942e-014	-2.0425e-014	-1.16377e-014	3.82544e-014	
MinCout:	-1.16044e-014	FineR:	12	FineC:	148

