	CoarseC0	CoarseC10	CoarseC20	CoarseC30	CoarseC40	CoarseC50	CoarseC60	CoarseC70	CoarseC80	CoarseC90	CoarseC100	CoarseC110	CoarseC120	CoarseC130	CoarseC140	CoarseC150	CoarseC160	CoarseC170	CoarseC180	CoarseC190	CoarseC200	CoarseC210	CoarseC220	CoarseC230	CoarseC240	CoarseC250	
CoarseR0	-1.63311e-010	-1.63628e-010	-1.63253e-010	-1.62925e-010	-1.6271e-010	-1.62632e-010	-1.62505e-010	-1.62491e-010	-1.62458e-010	-1.62572e-010	-1.62626e-010	-1.62651e-010	-1.62539e-010	-1.62486e-010	-1.62419e-010	-1.62402e-010	-1.62375e-010	-1.6244e-010	-1.62424e-010	-1.62346e-010	-1.6233e-010	-1.62373e-010	-1.6235e-010	-1.62438e-010	-1.62422e-010	-1.62471e-010	
CoarseR10	-1.57074e-010	-1.57039e-010	-1.57094e-010	-1.56939e-010	-1.569e-010	-1.56886e-010	-1.56951e-010	-1.56966e-010	-1.57003e-010	-1.56954e-010	-1.57034e-010	-1.57004e-010	-1.56998e-010	-1.57069e-010	-1.57043e-010	-1.57009e-010	-1.57005e-010	-1.57056e-010	-1.57065e-010	-1.57031e-010	-1.57099e-010	-1.57098e-010	-1.57184e-010	-1.57218e-010	-1.57288e-010	-1.57271e-010	
CoarseR20	-1.53301e-010	-1.52893e-010	-1.52804e-010	-1.52669e-010	-1.5261e-010	-1.52575e-010	-1.52615e-010	-1.52575e-010	-1.52566e-010	-1.52588e-010	-1.52503e-010	-1.52526e-010	-1.52441e-010	-1.52472e-010	-1.52405e-010	-1.52433e-010	-1.52406e-010	-1.52424e-010	-1.52394e-010	-1.52416e-010	-1.52444e-010	-1.52435e-010	-1.5252e-010	-1.52579e-010	-1.52605e-010	-1.52619e-010	
CoarseR30	-1.49425e-010	-1.48909e-010	-1.48869e-010	-1.48777e-010	-1.48592e-010	-1.48589e-010	-1.48596e-010	-1.48518e-010	-1.48516e-010	-1.48476e-010	-1.48454e-010	-1.48386e-010	-1.4841e-010	-1.48407e-010	-1.48384e-010	-1.48449e-010	-1.48449e-010	-1.48421e-010	-1.48417e-010	-1.48501e-010	-1.48467e-010	-1.48505e-010	-1.48532e-010	-1.48466e-010	-1.48499e-010	-1.48537e-010	
CoarseR40	-1.46287e-010	-1.46051e-010	-1.45512e-010	-1.4542e-010	-1.45408e-010	-1.45265e-010	-1.45376e-010	-1.45451e-010	-1.4532e-010	-1.45237e-010	-1.45274e-010	-1.45273e-010	-1.45221e-010	-1.45218e-010	-1.45268e-010	-1.45228e-010	-1.45267e-010	-1.45389e-010	-1.45514e-010	-1.45627e-010	-1.45685e-010	-1.45677e-010	-1.45764e-010	-1.45837e-010	-1.45795e-010	-1.459e-010	
CoarseR50	-1.44217e-010	-1.44031e-010	-1.43835e-010	-1.43349e-010	-1.4324e-010	-1.43185e-010	-1.4312e-010	-1.4297e-010	-1.43029e-010	-1.42937e-010	-1.4296e-010	-1.42947e-010	-1.42886e-010	-1.42843e-010	-1.42801e-010	-1.42794e-010	-1.42834e-010	-1.42817e-010	-1.42882e-010	-1.42854e-010	-1.42839e-010	-1.42834e-010	-1.42804e-010	-1.42854e-010	-1.42854e-010	-1.42866e-010	
CoarseR60	-1.41791e-010	-1.41748e-010	-1.41513e-010	-1.41344e-010	-1.40809e-010	-1.40744e-010	-1.40747e-010	-1.4074e-010	-1.40561e-010	-1.40455e-010	-1.40413e-010	-1.40454e-010	-1.40405e-010	-1.40393e-010	-1.4048e-010	-1.4052e-010	-1.40508e-010	-1.40507e-010	-1.40548e-010	-1.40599e-010	-1.40676e-010	-1.40696e-010	-1.40737e-010	-1.40875e-010	-1.4088e-010	-1.40948e-010	
CoarseR70	-1.40403e-010	-1.4035e-010	-1.40243e-010	-1.401e-010	-1.39941e-010	-1.3938e-010	-1.39342e-010	-1.39267e-010	-1.39252e-010	-1.39071e-010	-1.39018e-010	-1.39007e-010	-1.38964e-010	-1.38953e-010	-1.3898e-010	-1.3898e-010	-1.39011e-010	-1.39032e-010	-1.39101e-010	-1.3917e-010	-1.39127e-010	-1.3917e-010	-1.39123e-010	-1.39149e-010	-1.39165e-010	-1.39176e-010	
CoarseR80	-1.39041e-010	-1.38902e-010	-1.3885e-010	-1.38695e-010	-1.38533e-010	-1.37906e-010	-1.37859e-010	-1.37849e-010	-1.37812e-010	-1.37732e-010	-1.37615e-010	-1.37647e-010	-1.37616e-010	-1.37574e-010	-1.3765e-010	-1.37639e-010	-1.37694e-010	-1.37722e-010	-1.37871e-010	-1.37919e-010	-1.37904e-010	-1.37978e-010	-1.37978e-010	-1.38064e-010	-1.38071e-010	-1.38028e-010	
CoarseR90	-1.38346e-010	-1.38243e-010	-1.3812e-010	-1.38082e-010	-1.37841e-010	-1.37788e-010	-1.37192e-010	-1.37086e-010	-1.37078e-010	-1.37084e-010	-1.37031e-010	-1.36893e-010	-1.36842e-010	-1.36894e-010	-1.36857e-010	-1.36848e-010	-1.36909e-010	-1.36856e-010	-1.36902e-010	-1.36902e-010	-1.36914e-010	-1.36914e-010	-1.36966e-010	-1.36976e-010	-1.36961e-010	-1.36972e-010	
CoarseR100	-1.37482e-010	-1.37378e-010	-1.37282e-010	-1.37195e-010	-1.37021e-010	-1.36955e-010	-1.3635e-010	-1.36277e-010	-1.36236e-010	-1.36154e-010	-1.36122e-010	-1.36145e-010	-1.35998e-010	-1.36072e-010	-1.3607e-010	-1.36052e-010	-1.36108e-010	-1.36135e-010	-1.36158e-010	-1.36246e-010	-1.36321e-010	-1.36317e-010	-1.3642e-010	-1.36424e-010	-1.36512e-010	-1.36533e-010	
CoarseR110	-1.37604e-010	-1.37555e-010	-1.37438e-010	-1.3741e-010	-1.371e-010	-1.37061e-010	-1.3645e-010	-1.36421e-010	-1.36392e-010	-1.36305e-010	-1.36278e-010	-1.36274e-010	-1.36171e-010	-1.36186e-010	-1.36178e-010	-1.36235e-010	-1.36231e-010	-1.36259e-010	-1.36307e-010	-1.36307e-010	-1.36315e-010	-1.36271e-010	-1.36303e-010	-1.36355e-010	-1.3636e-010	-1.36355e-010	
CoarseR120	-1.37563e-010	-1.37454e-010	-1.37327e-010	-1.37132e-010	-1.3693e-010	-1.36848e-010	-1.3629e-010	-1.36246e-010	-1.36207e-010	-1.36104e-010	-1.36128e-010	-1.36093e-010	-1.35939e-010	-1.35951e-010	-1.36032e-010	-1.35934e-010	-1.35999e-010	-1.35991e-010	-1.36036e-010	-1.36056e-010	-1.36096e-010	-1.36093e-010	-1.36164e-010	-1.36144e-010	-1.36174e-010	-1.36212e-010	
CoarseR130	-1.37597e-010	-1.37522e-010	-1.37421e-010	-1.37305e-010	-1.37121e-010	-1.37085e-010	-1.36581e-010	-1.36459e-010	-1.36473e-010	-1.3637e-010	-1.36326e-010	-1.36319e-010	-1.36216e-010	-1.36165e-010	-1.36121e-010	-1.36179e-010	-1.3623e-010	-1.36248e-010	-1.36329e-010	-1.36329e-010	-1.36329e-010	-1.36302e-010	-1.36359e-010	-1.36366e-010	-1.36366e-010	-1.36321e-010	
CoarseR140	-1.37944e-010	-1.3785e-010	-1.37726e-010	-1.37632e-010	-1.37452e-010	-1.37303e-010	-1.36967e-010	-1.36855e-010	-1.36876e-010	-1.36762e-010	-1.3679e-010	-1.36639e-010	-1.36539e-010	-1.36621e-010	-1.36587e-010	-1.36612e-010	-1.36599e-010	-1.36734e-010	-1.36674e-010	-1.36734e-010	-1.36765e-010	-1.36778e-010	-1.36696e-010	-1.36781e-010	-1.36768e-010	-1.36798e-010	
CoarseR150	-1.38604e-010	-1.38444e-010	-1.38245e-010	-1.38191e-010	-1.37994e-010	-1.37941e-010	-1.37389e-010	-1.37366e-010	-1.37316e-010	-1.37304e-010	-1.37235e-010	-1.37256e-010	-1.37145e-010	-1.37161e-010	-1.37221e-010	-1.37195e-010	-1.37239e-010	-1.37247e-010	-1.37197e-010	-1.37211e-010	-1.37226e-010	-1.3727e-010	-1.3727e-010	-1.37257e-010	-1.37301e-010	-1.37322e-010	
CoarseR160	-1.39087e-010	-1.39035e-010	-1.38946e-010	-1.38822e-010	-1.38663e-010	-1.38529e-010	-1.38093e-010	-1.38e-010	-1.3797e-010	-1.37945e-010	-1.37851e-010	-1.37851e-010	-1.37687e-010	-1.37725e-010	-1.37712e-010	-1.377e-010	-1.37706e-010	-1.37714e-010	-1.37739e-010	-1.37733e-010	-1.37785e-010	-1.37799e-010	-1.37881e-010	-1.37919e-010	-1.37892e-010	-1.37993e-010	
CoarseR170	-1.39783e-010	-1.39638e-010	-1.39514e-010	-1.3949e-010	-1.39418e-010	-1.39296e-010	-1.38879e-010	-1.38799e-010	-1.38723e-010	-1.38756e-010	-1.38707e-010	-1.38751e-010	-1.38647e-010	-1.38611e-010	-1.38631e-010	-1.38655e-010	-1.38625e-010	-1.38625e-010	-1.38596e-010	-1.38568e-010	-1.38577e-010	-1.38533e-010	-1.38574e-010	-1.38564e-010	-1.38629e-010	-1.38695e-010	
CoarseR180	-1.406e-010	-1.40471e-010	-1.40363e-010	-1.40317e-010	-1.40145e-010	-1.40085e-010	-1.39665e-010	-1.39721e-010	-1.39681e-010	-1.39714e-010	-1.39729e-010	-1.39721e-010	-1.39685e-010	-1.39697e-010	-1.39643e-010	-1.39549e-010	-1.39607e-010	-1.39674e-010	-1.39707e-010	-1.39763e-010	-1.39844e-010	-1.39859e-010	-1.39807e-010	-1.39836e-010	-1.39853e-010	-1.39896e-010	
CoarseR190	-1.41869e-010	-1.41635e-010	-1.41586e-010	-1.41509e-010	-1.41329e-010	-1.41182e-010	-1.40737e-010	-1.40662e-010	-1.40684e-010	-1.40587e-010	-1.40549e-010	-1.40434e-010	-1.40393e-010	-1.4035e-010	-1.40347e-010	-1.40351e-010	-1.40378e-010	-1.40417e-010	-1.40412e-010	-1.40378e-010	-1.40392e-010	-1.40416e-010	-1.40435e-010	-1.40451e-010	-1.40451e-010	-1.40429e-010	
CoarseR200	-1.42332e-010	-1.42278e-010	-1.42203e-010	-1.42098e-010	-1.41871e-010	-1.4178e-010	-1.41293e-010	-1.41218e-010	-1.41132e-010	-1.41078e-010	-1.4106e-010	-1.40946e-010	-1.40944e-010	-1.40968e-010	-1.40996e-010	-1.4108e-010	-1.41195e-010	-1.4111e-010	-1.41211e-010	-1.41206e-010	-1.41266e-010	-1.41333e-010	-1.41442e-010	-1.41507e-010	-1.4149e-010	-1.4156e-010	
CoarseR210	-1.43359e-010	-1.43315e-010	-1.43224e-010	-1.43162e-010	-1.42954e-010	-1.429e-010	-1.424e-010	-1.42296e-010	-1.42332e-010	-1.42332e-010	-1.42241e-010	-1.42147e-010	-1.42094e-010	-1.42085e-010	-1.42123e-010	-1.42092e-010	-1.42059e-010	-1.42173e-010	-1.42168e-010	-1.4218e-010	-1.42206e-010	-1.42202e-010	-1.42218e-010	-1.42218e-010	-1.42232e-010	-1.42227e-010	
CoarseR220	-1.44095e-010	-1.4388e-010	-1.43779e-010	-1.4374e-010	-1.43435e-010	-1.43368e-010	-1.42979e-010	-1.42889e-010	-1.42863e-010	-1.42859e-010	-1.42831e-010	-1.42665e-010	-1.42656e-010	-1.42661e-010	-1.42666e-010	-1.42684e-010	-1.4265e-010	-1.42726e-010	-1.42707e-010	-1.42664e-010	-1.42665e-010	-1.42711e-010	-1.42745e-010	-1.42731e-010	-1.42783e-010	-1.42698e-010	
CoarseR230	-1.44362e-010	-1.44302e-010	-1.44129e-010	-1.43968e-010	-1.43837e-010	-1.43833e-010	-1.43322e-010	-1.4319e-010	-1.43128e-010	-1.43164e-010	-1.43119e-010	-1.43026e-010	-1.42952e-010	-1.4299e-010	-1.43002e-010	-1.42993e-010	-1.43057e-010	-1.43048e-010	-1.4309e-010	-1.43128e-010	-1.43109e-010	-1.43227e-010	-1.43251e-010	-1.4321e-010	-1.43154e-010	-1.43154e-010	
CoarseR240	-1.44845e-010	-1.44677e-010	-1.44586e-010	-1.44482e-010	-1.44222e-010	-1.44166e-010	-1.43702e-010	-1.43613e-010	-1.43566e-010	-1.43514e-010	-1.43493e-010	-1.43283e-010	-1.43274e-010	-1.43187e-010	-1.43122e-010	-1.43132e-010	-1.43085e-010	-1.4316e-010	-1.43155e-010	-1.43196e-010	-1.43165e-010	-1.43188e-010	-1.43229e-010	-1.43229e-010	-1.43224e-010	-1.4322e-010	
CoarseR250	-1.44878e-010	-1.44799e-010	-1.44641e-010	-1.44521e-010	-1.44326e-010	-1.44288e-010	-1.43714e-010	-1.43628e-010	-1.43512e-010	-1.43421e-010	-1.43352e-010	-1.4323e-010	-1.43235e-010	-1.4321e-010	-1.4321e-010	-1.43159e-010	-1.43195e-010	-1.432e-010	-1.43195e-010	-1.43195e-010	-1.43195e-010	-1.43205e-010	-1.43205e-010	-1.43243e-010	-1.43215e-010	-1.43237e-010	
MinCout:	-1.35934e-010	CoarseR:	120	CoarseC:	150

	CoarseC220	CoarseC221	CoarseC222	CoarseC223	CoarseC224	CoarseC225	CoarseC226	CoarseC227	CoarseC228	CoarseC229	CoarseC230	CoarseC231	CoarseC232	CoarseC233	CoarseC234	CoarseC235	CoarseC236	CoarseC237	CoarseC238	CoarseC239	CoarseC240	
CoarseR160	-1.38159e-010	-1.38094e-010	-1.38102e-010	-1.38058e-010	-1.38102e-010	-1.37913e-010	-1.37874e-010	-1.37883e-010	-1.37866e-010	-1.37822e-010	-1.37861e-010	-1.37905e-010	-1.37809e-010	-1.37866e-010	-1.37863e-010	-1.37855e-010	-1.37861e-010	-1.37811e-010	-1.37841e-010	-1.37885e-010	-1.37863e-010	
CoarseR161	-1.38215e-010	-1.38122e-010	-1.38147e-010	-1.38141e-010	-1.3819e-010	-1.38009e-010	-1.38015e-010	-1.38023e-010	-1.38045e-010	-1.3796e-010	-1.38026e-010	-1.38026e-010	-1.37982e-010	-1.37976e-010	-1.37954e-010	-1.38025e-010	-1.37976e-010	-1.3802e-010	-1.38e-010	-1.37976e-010	-1.3797e-010	
CoarseR162	-1.3829e-010	-1.38274e-010	-1.38235e-010	-1.38235e-010	-1.38265e-010	-1.38221e-010	-1.38084e-010	-1.38106e-010	-1.38103e-010	-1.38098e-010	-1.38114e-010	-1.3807e-010	-1.38062e-010	-1.38065e-010	-1.38139e-010	-1.38051e-010	-1.38092e-010	-1.38045e-010	-1.38114e-010	-1.3819e-010	-1.38198e-010	
CoarseR163	-1.38514e-010	-1.38626e-010	-1.38528e-010	-1.38528e-010	-1.38623e-010	-1.3859e-010	-1.38556e-010	-1.38444e-010	-1.38436e-010	-1.38435e-010	-1.38701e-010	-1.38673e-010	-1.38564e-010	-1.38834e-010	-1.38754e-010	-1.38814e-010	-1.38844e-010	-1.3886e-010	-1.38797e-010	-1.38868e-010	-1.3889e-010	
CoarseR164	-1.39195e-010	-1.39132e-010	-1.3919e-010	-1.38985e-010	-1.38956e-010	-1.38926e-010	-1.38931e-010	-1.38791e-010	-1.38789e-010	-1.38789e-010	-1.38622e-010	-1.38734e-010	-1.38742e-010	-1.38736e-010	-1.38595e-010	-1.38536e-010	-1.38516e-010	-1.38577e-010	-1.38309e-010	-1.38588e-010	-1.38596e-010	
CoarseR165	-1.39061e-010	-1.38843e-010	-1.38986e-010	-1.39042e-010	-1.39121e-010	-1.39131e-010	-1.3906e-010	-1.38999e-010	-1.3892e-010	-1.38964e-010	-1.38918e-010	-1.38888e-010	-1.38904e-010	-1.3892e-010	-1.38986e-010	-1.38964e-010	-1.38879e-010	-1.38977e-010	-1.38906e-010	-1.38923e-010	-1.38923e-010	
CoarseR166	-1.39809e-010	-1.39295e-010	-1.3923e-010	-1.39281e-010	-1.39194e-010	-1.39156e-010	-1.39161e-010	-1.3903e-010	-1.38957e-010	-1.38933e-010	-1.38933e-010	-1.38824e-010	-1.38756e-010	-1.38728e-010	-1.38699e-010	-1.38699e-010	-1.38699e-010	-1.38655e-010	-1.38625e-010	-1.3866e-010	-1.38582e-010	
CoarseR167	-1.39579e-010	-1.38951e-010	-1.39009e-010	-1.39022e-010	-1.38937e-010	-1.38902e-010	-1.38875e-010	-1.38741e-010	-1.38741e-010	-1.38785e-010	-1.38774e-010	-1.38803e-010	-1.38787e-010	-1.38754e-010	-1.38796e-010	-1.38703e-010	-1.38697e-010	-1.38727e-010	-1.38727e-010	-1.38763e-010	-1.38763e-010	
CoarseR168	-1.39578e-010	-1.39541e-010	-1.39035e-010	-1.39035e-010	-1.39035e-010	-1.38896e-010	-1.38932e-010	-1.38896e-010	-1.38712e-010	-1.38721e-010	-1.38724e-010	-1.38691e-010	-1.38719e-010	-1.38689e-010	-1.38719e-010	-1.38713e-010	-1.38659e-010	-1.3861e-010	-1.38624e-010	-1.38608e-010	-1.38608e-010	
CoarseR169	-1.39446e-010	-1.39481e-010	-1.39424e-010	-1.38872e-010	-1.38899e-010	-1.38841e-010	-1.38855e-010	-1.38782e-010	-1.38782e-010	-1.38686e-010	-1.38672e-010	-1.387e-010	-1.38612e-010	-1.38654e-010	-1.38626e-010	-1.38607e-010	-1.38612e-010	-1.38626e-010	-1.38585e-010	-1.38583e-010	-1.38605e-010	
CoarseR170	-1.3948e-010	-1.39499e-010	-1.3947e-010	-1.39147e-010	-1.38891e-010	-1.38676e-010	-1.38617e-010	-1.38511e-010	-1.38508e-010	-1.38298e-010	-1.38296e-010	-1.38296e-010	-1.38339e-010	-1.38393e-010	-1.38325e-010	-1.38347e-010	-1.38415e-010	-1.38628e-010	-1.38537e-010	-1.38551e-010	-1.38556e-010	
CoarseR171	-1.39446e-010	-1.39483e-010	-1.39483e-010	-1.39467e-010	-1.38863e-010	-1.38831e-010	-1.38855e-010	-1.38781e-010	-1.3882e-010	-1.38776e-010	-1.38724e-010	-1.38724e-010	-1.38726e-010	-1.38721e-010	-1.38816e-010	-1.38818e-010	-1.38818e-010	-1.38818e-010	-1.38766e-010	-1.3875e-010	-1.38694e-010	
CoarseR172	-1.39541e-010	-1.39555e-010	-1.39489e-010	-1.39446e-010	-1.39473e-010	-1.38993e-010	-1.38922e-010	-1.389e-010	-1.38846e-010	-1.38752e-010	-1.38665e-010	-1.38677e-010	-1.38677e-010	-1.38649e-010	-1.38671e-010	-1.38652e-010	-1.38622e-010	-1.38622e-010	-1.38622e-010	-1.38593e-010	-1.38593e-010	
CoarseR173	-1.3943e-010	-1.39464e-010	-1.39457e-010	-1.39458e-010	-1.39468e-010	-1.38933e-010	-1.38958e-010	-1.38952e-010	-1.39009e-010	-1.38908e-010	-1.38856e-010	-1.3879e-010	-1.38839e-010	-1.38739e-010	-1.387e-010	-1.38739e-010	-1.38722e-010	-1.38695e-010	-1.38731e-010	-1.38693e-010	-1.38693e-010	
CoarseR174	-1.39631e-010	-1.3966e-010	-1.39641e-010	-1.39684e-010	-1.39643e-010	-1.39629e-010	-1.3911e-010	-1.39037e-010	-1.39081e-010	-1.38854e-010	-1.38887e-010	-1.38838e-010	-1.38787e-010	-1.38757e-010	-1.38713e-010	-1.38755e-010	-1.38736e-010	-1.38788e-010	-1.38774e-010	-1.38803e-010	-1.38847e-010	
CoarseR175	-1.39776e-010	-1.39724e-010	-1.39683e-010	-1.3967e-010	-1.39698e-010	-1.39645e-010	-1.39113e-010	-1.39121e-010	-1.39094e-010	-1.39026e-010	-1.38968e-010	-1.38946e-010	-1.38946e-010	-1.38975e-010	-1.38946e-010	-1.38975e-010	-1.39014e-010	-1.38995e-010	-1.39019e-010	-1.39062e-010	-1.3907e-010	
CoarseR176	-1.40235e-010	-1.40468e-010	-1.40448e-010	-1.40456e-010	-1.40543e-010	-1.40548e-010	-1.40618e-010	-1.4003e-010	-1.40038e-010	-1.40054e-010	-1.40031e-010	-1.39965e-010	-1.39986e-010	-1.39914e-010	-1.39875e-010	-1.39803e-010	-1.3989e-010	-1.39819e-010	-1.39795e-010	-1.39838e-010	-1.39868e-010	
CoarseR177	-1.40694e-010	-1.40771e-010	-1.40781e-010	-1.40705e-010	-1.40814e-010	-1.40885e-010	-1.40787e-010	-1.40866e-010	-1.40331e-010	-1.40235e-010	-1.40181e-010	-1.40247e-010	-1.40219e-010	-1.4016e-010	-1.40203e-010	-1.40147e-010	-1.40152e-010	-1.40152e-010	-1.40133e-010	-1.4013e-010	-1.40154e-010	
CoarseR178	-1.41035e-010	-1.41023e-010	-1.41008e-010	-1.40967e-010	-1.4105e-010	-1.41023e-010	-1.41132e-010	-1.40989e-010	-1.40345e-010	-1.40261e-010	-1.40326e-010	-1.4024e-010	-1.40201e-010	-1.40153e-010	-1.40167e-010	-1.40172e-010	-1.40167e-010	-1.4008e-010	-1.40094e-010	-1.40094e-010	-1.40094e-010	
CoarseR179	-1.40978e-010	-1.40941e-010	-1.40965e-010	-1.40962e-010	-1.40896e-010	-1.40772e-010	-1.40772e-010	-1.40604e-010	-1.40607e-010	-1.40044e-010	-1.40111e-010	-1.40038e-010	-1.40148e-010	-1.40134e-010	-1.40113e-010	-1.40113e-010	-1.40122e-010	-1.40135e-010	-1.40086e-010	-1.4013e-010	-1.40086e-010	
CoarseR180	-1.40979e-010	-1.41028e-010	-1.40996e-010	-1.41069e-010	-1.40984e-010	-1.41044e-010	-1.40854e-010	-1.40993e-010	-1.40868e-010	-1.40834e-010	-1.40255e-010	-1.40284e-010	-1.40138e-010	-1.40109e-010	-1.40114e-010	-1.40114e-010	-1.4009e-010	-1.40056e-010	-1.40121e-010	-1.40061e-010	-1.40061e-010	
MinCout:	-1.37809e-010	CoarseR:	160	CoarseC:	232

	FineC0	FineC10	FineC20	FineC30	FineC40	FineC50	FineC60	FineC70	FineC80	FineC90	FineC100	FineC110	FineC120	FineC130	FineC140	FineC150	FineC160	FineC170	FineC180	FineC190	FineC200	FineC210	FineC220	FineC230	FineC240	FineC250	
FineR0	-1.39172e-010	-1.39055e-010	-1.39049e-010	-1.39019e-010	-1.38991e-010	-1.38989e-010	-1.39005e-010	-1.3902e-010	-1.38992e-010	-1.38454e-010	-1.38416e-010	-1.38402e-010	-1.38293e-010	-1.38386e-010	-1.38381e-010	-1.38351e-010	-1.38356e-010	-1.38301e-010	-1.38362e-010	-1.38376e-010	-1.38293e-010	-1.38293e-010	-1.38255e-010	-1.38209e-010	-1.38222e-010	-1.38195e-010	
FineR10	-1.39236e-010	-1.39187e-010	-1.39128e-010	-1.39114e-010	-1.39008e-010	-1.39005e-010	-1.39236e-010	-1.39155e-010	-1.3919e-010	-1.39128e-010	-1.39133e-010	-1.39147e-010	-1.39095e-010	-1.39065e-010	-1.38984e-010	-1.38975e-010	-1.38965e-010	-1.38937e-010	-1.38936e-010	-1.38956e-010	-1.38887e-010	-1.38935e-010	-1.38961e-010	-1.38956e-010	-1.3889e-010	-1.38942e-010	
FineR20	-1.39214e-010	-1.39171e-010	-1.39045e-010	-1.38997e-010	-1.39049e-010	-1.39076e-010	-1.39078e-010	-1.39106e-010	-1.3909e-010	-1.39086e-010	-1.39103e-010	-1.39086e-010	-1.391e-010	-1.39122e-010	-1.39163e-010	-1.39176e-010	-1.39191e-010	-1.39147e-010	-1.39163e-010	-1.39229e-010	-1.39222e-010	-1.392e-010	-1.39185e-010	-1.39171e-010	-1.39228e-010	-1.39176e-010	
FineR30	-1.39419e-010	-1.39355e-010	-1.39319e-010	-1.39283e-010	-1.39226e-010	-1.39239e-010	-1.39166e-010	-1.39175e-010	-1.39136e-010	-1.39131e-010	-1.3915e-010	-1.3915e-010	-1.39121e-010	-1.39129e-010	-1.39152e-010	-1.39154e-010	-1.39211e-010	-1.3914e-010	-1.39189e-010	-1.39145e-010	-1.39205e-010	-1.39233e-010	-1.39222e-010	-1.39286e-010	-1.39261e-010	-1.39313e-010	
FineR40	-1.39466e-010	-1.39295e-010	-1.39249e-010	-1.39191e-010	-1.39243e-010	-1.39258e-010	-1.39214e-010	-1.39214e-010	-1.39234e-010	-1.39263e-010	-1.39249e-010	-1.39274e-010	-1.39326e-010	-1.39268e-010	-1.39309e-010	-1.3928e-010	-1.39241e-010	-1.39192e-010	-1.39206e-010	-1.39192e-010	-1.39223e-010	-1.39236e-010	-1.39238e-010	-1.39307e-010	-1.39323e-010	-1.39323e-010	
FineR50	-1.39477e-010	-1.39545e-010	-1.39351e-010	-1.39433e-010	-1.39427e-010	-1.39514e-010	-1.39465e-010	-1.39508e-010	-1.39516e-010	-1.39451e-010	-1.39498e-010	-1.39409e-010	-1.3948e-010	-1.39446e-010	-1.39528e-010	-1.39585e-010	-1.39595e-010	-1.39638e-010	-1.39644e-010	-1.39665e-010	-1.39671e-010	-1.39665e-010	-1.39661e-010	-1.39539e-010	-1.39494e-010	-1.39522e-010	
FineR60	-1.39711e-010	-1.3973e-010	-1.39616e-010	-1.39616e-010	-1.39489e-010	-1.39535e-010	-1.39535e-010	-1.39468e-010	-1.39417e-010	-1.39475e-010	-1.39448e-010	-1.39448e-010	-1.39382e-010	-1.3944e-010	-1.39552e-010	-1.39543e-010	-1.3968e-010	-1.39624e-010	-1.39594e-010	-1.39551e-010	-1.39526e-010	-1.39519e-010	-1.39519e-010	-1.39495e-010	-1.39461e-010	-1.39475e-010	
FineR70	-1.39631e-010	-1.39573e-010	-1.39537e-010	-1.39393e-010	-1.3935e-010	-1.3932e-010	-1.39282e-010	-1.39209e-010	-1.39223e-010	-1.39222e-010	-1.39258e-010	-1.39277e-010	-1.39226e-010	-1.39268e-010	-1.3927e-010	-1.39239e-010	-1.39297e-010	-1.39231e-010	-1.39229e-010	-1.39245e-010	-1.39215e-010	-1.39229e-010	-1.39267e-010	-1.39289e-010	-1.39233e-010	-1.39246e-010	
FineR80	-1.39373e-010	-1.39373e-010	-1.393e-010	-1.39237e-010	-1.39267e-010	-1.39267e-010	-1.39215e-010	-1.39215e-010	-1.39258e-010	-1.39204e-010	-1.3918e-010	-1.39231e-010	-1.39202e-010	-1.39202e-010	-1.3914e-010	-1.39115e-010	-1.39128e-010	-1.3915e-010	-1.39077e-010	-1.39064e-010	-1.39082e-010	-1.39091e-010	-1.39097e-010	-1.39097e-010	-1.39119e-010	-1.39104e-010	
FineR90	-1.39303e-010	-1.3927e-010	-1.39168e-010	-1.39153e-010	-1.392e-010	-1.39158e-010	-1.39216e-010	-1.39255e-010	-1.39327e-010	-1.39316e-010	-1.39303e-010	-1.39287e-010	-1.39325e-010	-1.39311e-010	-1.39377e-010	-1.39399e-010	-1.39326e-010	-1.39355e-010	-1.39404e-010	-1.39367e-010	-1.39431e-010	-1.39389e-010	-1.39391e-010	-1.39362e-010	-1.39397e-010	-1.39406e-010	
FineR100	-1.39538e-010	-1.39518e-010	-1.39424e-010	-1.39451e-010	-1.39382e-010	-1.39489e-010	-1.39448e-010	-1.39497e-010	-1.39491e-010	-1.39491e-010	-1.3945e-010	-1.39508e-010	-1.39521e-010	-1.3945e-010	-1.39472e-010	-1.39501e-010	-1.39492e-010	-1.39494e-010	-1.39537e-010	-1.39543e-010	-1.39465e-010	-1.39543e-010	-1.39501e-010	-1.39457e-010	-1.39494e-010	-1.39528e-010	
FineR110	-1.39698e-010	-1.39664e-010	-1.39545e-010	-1.39574e-010	-1.39574e-010	-1.39609e-010	-1.39584e-010	-1.39779e-010	-1.39924e-010	-1.40118e-010	-1.40286e-010	-1.40393e-010	-1.40522e-010	-1.40619e-010	-1.40672e-010	-1.40671e-010	-1.40827e-010	-1.41127e-010	-1.41242e-010	-1.41271e-010	-1.41448e-010	-1.41552e-010	-1.41561e-010	-1.41725e-010	-1.41729e-010	-1.41785e-010	
FineR120	-1.41874e-010	-1.41482e-010	-1.41187e-010	-1.41103e-010	-1.41093e-010	-1.40965e-010	-1.40863e-010	-1.4085e-010	-1.4085e-010	-1.40774e-010	-1.40701e-010	-1.40653e-010	-1.40707e-010	-1.40652e-010	-1.4066e-010	-1.40673e-010	-1.40752e-010	-1.4082e-010	-1.40675e-010	-1.40689e-010	-1.40762e-010	-1.40856e-010	-1.40873e-010	-1.40747e-010	-1.40747e-010	-1.40791e-010	
FineR130	-1.40931e-010	-1.40883e-010	-1.40854e-010	-1.4082e-010	-1.40864e-010	-1.40895e-010	-1.40909e-010	-1.40996e-010	-1.40966e-010	-1.4089e-010	-1.40864e-010	-1.40846e-010	-1.40897e-010	-1.40857e-010	-1.40786e-010	-1.40786e-010	-1.40786e-010	-1.40726e-010	-1.40769e-010	-1.40726e-010	-1.40711e-010	-1.40711e-010	-1.40738e-010	-1.4072e-010	-1.40682e-010	-1.40733e-010	
FineR140	-1.40849e-010	-1.40692e-010	-1.40663e-010	-1.40605e-010	-1.40592e-010	-1.40552e-010	-1.40495e-010	-1.40393e-010	-1.40396e-010	-1.40223e-010	-1.40126e-010	-1.40053e-010	-1.39912e-010	-1.39835e-010	-1.39677e-010	-1.39618e-010	-1.39669e-010	-1.39678e-010	-1.39744e-010	-1.3977e-010	-1.40016e-010	-1.4034e-010	-1.40539e-010	-1.4051e-010	-1.40452e-010	-1.40406e-010	
FineR150	-1.40408e-010	-1.39862e-010	-1.39696e-010	-1.39566e-010	-1.39526e-010	-1.39409e-010	-1.3945e-010	-1.39404e-010	-1.39455e-010	-1.39567e-010	-1.39688e-010	-1.39591e-010	-1.39537e-010	-1.39553e-010	-1.39614e-010	-1.39899e-010	-1.40014e-010	-1.39995e-010	-1.40062e-010	-1.40216e-010	-1.40019e-010	-1.39951e-010	-1.3997e-010	-1.40019e-010	-1.40092e-010	-1.40232e-010	
FineR160	-1.40488e-010	-1.40385e-010	-1.4042e-010	-1.40415e-010	-1.40435e-010	-1.4035e-010	-1.40437e-010	-1.40446e-010	-1.40631e-010	-1.40616e-010	-1.4074e-010	-1.40795e-010	-1.40799e-010	-1.40764e-010	-1.40781e-010	-1.40851e-010	-1.39718e-010	-1.39672e-010	-1.3974e-010	-1.39542e-010	-1.3955e-010	-1.39477e-010	-1.39491e-010	-1.39552e-010	-1.39627e-010	-1.39696e-010	
FineR170	-1.39723e-010	-1.39577e-010	-1.39447e-010	-1.39447e-010	-1.39459e-010	-1.39456e-010	-1.39469e-010	-1.39497e-010	-1.39442e-010	-1.39358e-010	-1.39379e-010	-1.39416e-010	-1.39566e-010	-1.39843e-010	-1.39921e-010	-1.3964e-010	-1.39536e-010	-1.39482e-010	-1.39379e-010	-1.39291e-010	-1.39328e-010	-1.39478e-010	-1.39477e-010	-1.3942e-010	-1.39469e-010	-1.39412e-010	
FineR180	-1.39559e-010	-1.39362e-010	-1.39377e-010	-1.39298e-010	-1.3932e-010	-1.39311e-010	-1.39276e-010	-1.39205e-010	-1.39263e-010	-1.39339e-010	-1.39404e-010	-1.39463e-010	-1.39506e-010	-1.39463e-010	-1.39476e-010	-1.39449e-010	-1.39479e-010	-1.39528e-010	-1.39537e-010	-1.39595e-010	-1.39563e-010	-1.39704e-010	-1.39795e-010	-1.3979e-010	-1.39744e-010	-1.39673e-010	
FineR190	-1.40011e-010	-1.39827e-010	-1.39961e-010	-1.40047e-010	-1.40386e-010	-1.40667e-010	-1.40985e-010	-1.41035e-010	-1.40463e-010	-1.40351e-010	-1.40322e-010	-1.40181e-010	-1.39935e-010	-1.39925e-010	-1.39972e-010	-1.40166e-010	-1.40293e-010	-1.40475e-010	-1.40726e-010	-1.40857e-010	-1.4114e-010	-1.41588e-010	-1.41331e-010	-1.41049e-010	-1.41034e-010	-1.41233e-010	
FineR200	-1.41693e-010	-1.41388e-010	-1.41496e-010	-1.41584e-010	-1.41665e-010	-1.41252e-010	-1.41344e-010	-1.41346e-010	-1.41564e-010	-1.41457e-010	-1.41618e-010	-1.41562e-010	-1.41472e-010	-1.4145e-010	-1.41244e-010	-1.41295e-010	-1.41432e-010	-1.41481e-010	-1.41493e-010	-1.41288e-010	-1.41293e-010	-1.41408e-010	-1.41244e-010	-1.41242e-010	-1.41332e-010	-1.4128e-010	
FineR210	-1.41492e-010	-1.41221e-010	-1.413e-010	-1.41221e-010	-1.41192e-010	-1.41146e-010	-1.41237e-010	-1.41172e-010	-1.4108e-010	-1.41056e-010	-1.41056e-010	-1.4096e-010	-1.40887e-010	-1.40916e-010	-1.41188e-010	-1.41273e-010	-1.41048e-010	-1.41035e-010	-1.40909e-010	-1.40887e-010	-1.40892e-010	-1.40989e-010	-1.41104e-010	-1.41237e-010	-1.41179e-010	-1.41147e-010	
FineR220	-1.4122e-010	-1.41208e-010	-1.41189e-010	-1.41198e-010	-1.41262e-010	-1.41212e-010	-1.41197e-010	-1.41225e-010	-1.41324e-010	-1.41354e-010	-1.41381e-010	-1.41187e-010	-1.41328e-010	-1.41268e-010	-1.41281e-010	-1.41295e-010	-1.41184e-010	-1.41099e-010	-1.41002e-010	-1.41035e-010	-1.41042e-010	-1.4088e-010	-1.40809e-010	-1.40841e-010	-1.40829e-010	-1.40674e-010	
FineR230	-1.40759e-010	-1.4052e-010	-1.40531e-010	-1.40441e-010	-1.40412e-010	-1.40291e-010	-1.40242e-010	-1.40188e-010	-1.4015e-010	-1.40159e-010	-1.40115e-010	-1.40123e-010	-1.40172e-010	-1.40115e-010	-1.40162e-010	-1.40115e-010	-1.40135e-010	-1.40104e-010	-1.40113e-010	-1.40113e-010	-1.4013e-010	-1.401e-010	-1.401e-010	-1.4007e-010	-1.40113e-010	-1.40057e-010	
FineR240	-1.40165e-010	-1.40043e-010	-1.40009e-010	-1.4e-010	-1.39995e-010	-1.39941e-010	-1.39989e-010	-1.40017e-010	-1.40101e-010	-1.41048e-010	-1.40981e-010	-1.40976e-010	-1.40877e-010	-1.40749e-010	-1.40652e-010	-1.40596e-010	-1.40557e-010	-1.4049e-010	-1.40477e-010	-1.4048e-010	-1.40438e-010	-1.4038e-010	-1.40349e-010	-1.40395e-010	-1.4031e-010	-1.40254e-010	
FineR250	-1.4048e-010	-1.40249e-010	-1.40273e-010	-1.40327e-010	-1.40354e-010	-1.40361e-010	-1.40315e-010	-1.40475e-010	-1.40441e-010	-1.4054e-010	-1.40552e-010	-1.4054e-010	-1.40496e-010	-1.40551e-010	-1.40559e-010	-1.40564e-010	-1.40579e-010	-1.40572e-010	-1.4063e-010	-1.40642e-010	-1.40661e-010	-1.40754e-010	-1.40979e-010	-1.41017e-010	-1.40961e-010	-1.40901e-010	
MinCout:	-1.38195e-010	FineR:	0	FineC:	250

	FineC160	FineC161	FineC162	FineC163	FineC164	FineC165	FineC166	FineC167	FineC168	FineC169	FineC170	FineC171	FineC172	FineC173	FineC174	FineC175	FineC176	FineC177	FineC178	FineC179	FineC180	
FineR0	-1.40033e-010	-1.39996e-010	-1.40051e-010	-1.39859e-010	-1.40041e-010	-1.40102e-010	-1.40036e-010	-1.40011e-010	-1.3999e-010	-1.39988e-010	-1.39986e-010	-1.39979e-010	-1.40026e-010	-1.39778e-010	-1.39768e-010	-1.39811e-010	-1.39705e-010	-1.39834e-010	-1.39747e-010	-1.39943e-010	-1.40063e-010	
FineR1	-1.4006e-010	-1.40272e-010	-1.40282e-010	-1.40351e-010	-1.40436e-010	-1.40647e-010	-1.40462e-010	-1.40413e-010	-1.40245e-010	-1.40243e-010	-1.40231e-010	-1.39805e-010	-1.39962e-010	-1.40181e-010	-1.40189e-010	-1.40054e-010	-1.4007e-010	-1.40398e-010	-1.40285e-010	-1.40421e-010	-1.40346e-010	
FineR2	-1.40408e-010	-1.40514e-010	-1.40498e-010	-1.40363e-010	-1.40253e-010	-1.40217e-010	-1.39933e-010	-1.39903e-010	-1.40015e-010	-1.40159e-010	-1.39926e-010	-1.39893e-010	-1.40338e-010	-1.40558e-010	-1.41019e-010	-1.40703e-010	-1.40338e-010	-1.40344e-010	-1.4017e-010	-1.40105e-010	-1.39987e-010	
FineR3	-1.40035e-010	-1.40092e-010	-1.4086e-010	-1.41104e-010	-1.40655e-010	-1.40538e-010	-1.40331e-010	-1.39994e-010	-1.40234e-010	-1.40085e-010	-1.40933e-010	-1.41819e-010	-1.41841e-010	-1.41908e-010	-1.41913e-010	-1.42208e-010	-1.42138e-010	-1.41843e-010	-1.42073e-010	-1.42219e-010	-1.41067e-010	
FineR4	-1.42029e-010	-1.41884e-010	-1.42228e-010	-1.42146e-010	-1.42079e-010	-1.42162e-010	-1.42208e-010	-1.42331e-010	-1.42215e-010	-1.41899e-010	-1.41886e-010	-1.41752e-010	-1.42202e-010	-1.41954e-010	-1.42404e-010	-1.3991e-010	-1.40747e-010	-1.40766e-010	-1.40775e-010	-1.40586e-010	-1.40608e-010	
FineR5	-1.40686e-010	-1.40805e-010	-1.40771e-010	-1.40709e-010	-1.40669e-010	-1.40756e-010	-1.40786e-010	-1.40897e-010	-1.41076e-010	-1.41276e-010	-1.41542e-010	-1.41698e-010	-1.41772e-010	-1.42477e-010	-1.41798e-010	-1.41799e-010	-1.41649e-010	-1.4226e-010	-1.43221e-010	-1.41878e-010	-1.41776e-010	
FineR6	-1.4183e-010	-1.41738e-010	-1.42044e-010	-1.41747e-010	-1.41699e-010	-1.41747e-010	-1.41788e-010	-1.418e-010	-1.41516e-010	-1.41449e-010	-1.41989e-010	-1.43235e-010	-1.42249e-010	-1.42038e-010	-1.41735e-010	-1.41779e-010	-1.41677e-010	-1.42363e-010	-1.42281e-010	-1.41595e-010	-1.42565e-010	
FineR7	-1.41705e-010	-1.39615e-010	-1.39736e-010	-1.39949e-010	-1.40418e-010	-1.40982e-010	-1.4281e-010	-1.42012e-010	-1.41257e-010	-1.41157e-010	-1.41102e-010	-1.40408e-010	-1.4078e-010	-1.40588e-010	-1.40377e-010	-1.40425e-010	-1.40778e-010	-1.41053e-010	-1.41194e-010	-1.41341e-010	-1.4108e-010	
FineR8	-1.41063e-010	-1.41155e-010	-1.4079e-010	-1.40816e-010	-1.40829e-010	-1.40869e-010	-1.40991e-010	-1.4101e-010	-1.40128e-010	-1.4086e-010	-1.40813e-010	-1.40597e-010	-1.40529e-010	-1.40688e-010	-1.40466e-010	-1.4058e-010	-1.40705e-010	-1.40839e-010	-1.41021e-010	-1.40579e-010	-1.39734e-010	
FineR9	-1.39657e-010	-1.39568e-010	-1.39619e-010	-1.39836e-010	-1.40083e-010	-1.40284e-010	-1.40053e-010	-1.39672e-010	-1.39612e-010	-1.40209e-010	-1.40018e-010	-1.40046e-010	-1.39847e-010	-1.39804e-010	-1.40995e-010	-1.41156e-010	-1.40668e-010	-1.40911e-010	-1.40608e-010	-1.40303e-010	-1.40408e-010	
FineR10	-1.40277e-010	-1.40222e-010	-1.40102e-010	-1.40029e-010	-1.39988e-010	-1.39901e-010	-1.39889e-010	-1.39899e-010	-1.39892e-010	-1.3993e-010	-1.40009e-010	-1.39923e-010	-1.39911e-010	-1.39781e-010	-1.39841e-010	-1.39778e-010	-1.398e-010	-1.39741e-010	-1.39775e-010	-1.39695e-010	-1.39676e-010	
FineR11	-1.39797e-010	-1.39841e-010	-1.39754e-010	-1.39727e-010	-1.39768e-010	-1.39686e-010	-1.39751e-010	-1.39853e-010	-1.39768e-010	-1.39839e-010	-1.39771e-010	-1.39771e-010	-1.39726e-010	-1.39746e-010	-1.39822e-010	-1.39912e-010	-1.39987e-010	-1.40028e-010	-1.39922e-010	-1.4004e-010	-1.40093e-010	
FineR12	-1.39935e-010	-1.39981e-010	-1.39792e-010	-1.39815e-010	-1.39816e-010	-1.39781e-010	-1.39857e-010	-1.39914e-010	-1.39848e-010	-1.39842e-010	-1.39737e-010	-1.39737e-010	-1.3974e-010	-1.39464e-010	-1.39408e-010	-1.39493e-010	-1.39433e-010	-1.39447e-010	-1.39461e-010	-1.39451e-010	-1.39493e-010	
FineR13	-1.39529e-010	-1.39481e-010	-1.39419e-010	-1.39395e-010	-1.39332e-010	-1.39292e-010	-1.39322e-010	-1.3945e-010	-1.39322e-010	-1.39408e-010	-1.39342e-010	-1.39337e-010	-1.39583e-010	-1.40066e-010	-1.40272e-010	-1.40635e-010	-1.40629e-010	-1.40526e-010	-1.40396e-010	-1.40467e-010	-1.40436e-010	
FineR14	-1.40497e-010	-1.40351e-010	-1.40347e-010	-1.40282e-010	-1.40259e-010	-1.4018e-010	-1.40182e-010	-1.40299e-010	-1.40321e-010	-1.40289e-010	-1.40337e-010	-1.40339e-010	-1.40288e-010	-1.40386e-010	-1.40465e-010	-1.40666e-010	-1.40605e-010	-1.40607e-010	-1.41116e-010	-1.41044e-010	-1.41115e-010	
FineR15	-1.41464e-010	-1.40736e-010	-1.42137e-010	-1.41933e-010	-1.40963e-010	-1.40856e-010	-1.40771e-010	-1.40498e-010	-1.40378e-010	-1.40374e-010	-1.41507e-010	-1.42321e-010	-1.41478e-010	-1.41048e-010	-1.41813e-010	-1.41669e-010	-1.41927e-010	-1.42307e-010	-1.42458e-010	-1.4253e-010	-1.42882e-010	
FineR16	-1.42529e-010	-1.42575e-010	-1.42257e-010	-1.43447e-010	-1.43465e-010	-1.44148e-010	-1.44054e-010	-1.44306e-010	-1.44399e-010	-1.41069e-010	-1.42008e-010	-1.42681e-010	-1.42804e-010	-1.40654e-010	-1.43334e-010	-1.43566e-010	-1.44225e-010	-1.41907e-010	-1.41455e-010	-1.41629e-010	-1.41031e-010	
FineR17	-1.40843e-010	-1.4086e-010	-1.40899e-010	-1.40814e-010	-1.40947e-010	-1.40889e-010	-1.41433e-010	-1.40529e-010	-1.40482e-010	-1.40551e-010	-1.40677e-010	-1.40785e-010	-1.40841e-010	-1.40863e-010	-1.408e-010	-1.40849e-010	-1.40614e-010	-1.40422e-010	-1.40939e-010	-1.40762e-010	-1.40882e-010	
FineR18	-1.40983e-010	-1.4094e-010	-1.43972e-010	-1.43425e-010	-1.46497e-010	-1.45494e-010	-1.44897e-010	-1.45129e-010	-1.45433e-010	-1.45545e-010	-1.45371e-010	-1.45009e-010	-1.41738e-010	-1.42272e-010	-1.41658e-010	-1.41776e-010	-1.42781e-010	-1.44838e-010	-1.44575e-010	-1.45082e-010	-1.46021e-010	
FineR19	-1.43973e-010	-1.4389e-010	-1.43769e-010	-1.43777e-010	-1.43523e-010	-1.4342e-010	-1.4326e-010	-1.43107e-010	-1.42949e-010	-1.42942e-010	-1.42787e-010	-1.42764e-010	-1.42906e-010	-1.42823e-010	-1.4287e-010	-1.42895e-010	-1.42979e-010	-1.42974e-010	-1.42789e-010	-1.42872e-010	-1.42429e-010	
FineR20	-1.42523e-010	-1.42463e-010	-1.42407e-010	-1.42233e-010	-1.42298e-010	-1.42643e-010	-1.43172e-010	-1.43106e-010	-1.42892e-010	-1.42463e-010	-1.42436e-010	-1.42332e-010	-1.4216e-010	-1.41995e-010	-1.4199e-010	-1.41923e-010	-1.43385e-010	-1.43665e-010	-1.4406e-010	-1.46447e-010	-1.46996e-010	
MinCout:	-1.39292e-010	FineR:	13	FineC:	165

