	CoarseC0	CoarseC10	CoarseC20	CoarseC30	CoarseC40	CoarseC50	CoarseC60	CoarseC70	CoarseC80	CoarseC90	CoarseC100	CoarseC110	CoarseC120	CoarseC130	CoarseC140	CoarseC150	CoarseC160	CoarseC170	CoarseC180	CoarseC190	CoarseC200	CoarseC210	CoarseC220	CoarseC230	CoarseC240	CoarseC250	
CoarseR0	1.37957e-009	1.21122e-009	1.31868e-009	1.49741e-009	-2.67751e-010	-2.63678e-010	-2.60699e-010	-2.58318e-010	-2.56485e-010	-2.54779e-010	-2.53313e-010	-2.53401e-010	-2.54001e-010	-2.54935e-010	-2.55631e-010	-2.56459e-010	-2.5728e-010	-2.57755e-010	-2.57872e-010	-2.57589e-010	-2.56929e-010	-2.56168e-010	-2.55178e-010	-2.53888e-010	-2.52335e-010	-2.50706e-010	
CoarseR10	1.31651e-009	1.34437e-009	1.30919e-009	1.36337e-009	-1.95459e-010	-1.92047e-010	-1.89696e-010	-1.89162e-010	-1.88869e-010	-1.89516e-010	-1.91124e-010	-1.93109e-010	-1.95511e-010	-1.97761e-010	-1.99903e-010	-2.01785e-010	-2.03354e-010	-2.04664e-010	-2.06101e-010	-2.07155e-010	-2.07668e-010	-2.07833e-010	-2.07662e-010	-2.07258e-010	-2.06591e-010	-2.05783e-010	
CoarseR20	1.32723e-009	1.38697e-009	1.43106e-009	1.58219e-009	1.42436e-009	-1.37795e-010	-1.37053e-010	-1.37832e-010	-1.39751e-010	-1.42446e-010	-1.45372e-010	-1.48403e-010	-1.51457e-010	-1.54526e-010	-1.57325e-010	-1.604e-010	-1.63468e-010	-1.66036e-010	-1.68106e-010	-1.69689e-010	-1.7087e-010	-1.71701e-010	-1.72285e-010	-1.72552e-010	-1.72591e-010	-1.72398e-010	
CoarseR30	9.84368e-010	8.47371e-010	9.31381e-010	6.86142e-010	7.5213e-010	8.82737e-010	-9.78105e-011	-1.00216e-010	-1.02961e-010	-1.06007e-010	-1.09299e-010	-1.12776e-010	-1.16382e-010	-1.20454e-010	-1.25215e-010	-1.2948e-010	-1.33111e-010	-1.36245e-010	-1.38829e-010	-1.40959e-010	-1.4271e-010	-1.44087e-010	-1.45269e-010	-1.46095e-010	-1.46755e-010	-1.47309e-010	
CoarseR40	7.19486e-010	7.56138e-010	7.40294e-010	7.43257e-010	6.92824e-010	7.93759e-010	8.26345e-010	8.88684e-010	-7.36855e-011	-7.70082e-011	-8.07091e-011	-8.48163e-011	-9.00816e-011	-9.57184e-011	-1.00641e-010	-1.05271e-010	-1.09245e-010	-1.12789e-010	-1.15856e-010	-1.18536e-010	-1.20795e-010	-1.22877e-010	-1.24687e-010	-1.26463e-010	-1.27771e-010	-1.28835e-010	
CoarseR50	7.30076e-010	7.13784e-010	7.42797e-010	7.65193e-010	8.18374e-010	7.72127e-010	8.41165e-010	9.35719e-010	9.654e-010	1.03554e-009	-5.78213e-011	-6.38225e-011	-7.00624e-011	-7.57722e-011	-8.09517e-011	-8.57429e-011	-9.00991e-011	-9.39585e-011	-9.74319e-011	-1.00601e-010	-1.03736e-010	-1.06565e-010	-1.09016e-010	-1.10906e-010	-1.12464e-010	-1.13667e-010	
CoarseR60	6.22177e-010	7.40894e-010	7.42504e-010	7.663e-010	8.65623e-010	8.45756e-010	9.14853e-010	9.10571e-010	9.57367e-010	9.92668e-010	1.07254e-009	1.02979e-009	-5.36613e-011	-5.94858e-011	-6.48369e-011	-6.98448e-011	-7.44171e-011	-7.85805e-011	-8.26391e-011	-8.65743e-011	-9.01279e-011	-9.31742e-011	-9.56515e-011	-9.77835e-011	-9.95018e-011	-1.00887e-010	
CoarseR70	5.83788e-010	6.58433e-010	6.9933e-010	7.4467e-010	8.2527e-010	8.34468e-010	8.94761e-010	9.80748e-010	9.62848e-010	9.60032e-010	1.11329e-009	1.03088e-009	1.00233e-009	4.85171e-010	-5.14821e-011	-5.66834e-011	-6.15055e-011	-6.61688e-011	-7.09144e-011	-7.51156e-011	-7.87908e-011	-8.18898e-011	-8.44443e-011	-8.66401e-011	-8.84438e-011	-8.99635e-011	
CoarseR80	5.64691e-010	6.08227e-010	6.66368e-010	7.217e-010	7.48602e-010	7.85123e-010	8.26266e-010	8.73416e-010	8.77116e-010	8.74434e-010	8.75049e-010	9.27621e-010	8.56012e-010	8.3965e-010	9.15738e-010	-4.55975e-011	-5.0786e-011	-5.60663e-011	-6.09916e-011	-6.51839e-011	-6.88388e-011	-7.20393e-011	-7.47444e-011	-7.70131e-011	-7.89143e-011	-8.05879e-011	
CoarseR90	5.12412e-010	5.78343e-010	6.35019e-010	6.89454e-010	7.24556e-010	7.41701e-010	7.5517e-010	7.89107e-010	8.11858e-010	8.38067e-010	8.74107e-010	8.7745e-010	8.49838e-010	8.35258e-010	8.36314e-010	8.96933e-010	-4.1734e-011	-4.73808e-011	-5.23114e-011	-5.65613e-011	-6.03633e-011	-6.35269e-011	-6.62701e-011	-6.87307e-011	-7.0719e-011	-7.24399e-011	
CoarseR100	5.18702e-010	5.39126e-010	6.25225e-010	6.36927e-010	7.0338e-010	7.36676e-010	7.54426e-010	7.98386e-010	8.06712e-010	9.06798e-010	8.12925e-010	8.78383e-010	9.05119e-010	8.09257e-010	8.62731e-010	8.62506e-010	8.43777e-010	-3.96756e-011	-4.47523e-011	-4.90113e-011	-5.28666e-011	-5.61613e-011	-5.90554e-011	-6.15228e-011	-6.36111e-011	-6.54279e-011	
CoarseR110	4.9721e-010	5.30417e-010	5.90648e-010	6.59666e-010	7.05902e-010	7.38346e-010	7.36292e-010	7.49422e-010	7.74435e-010	8.18496e-010	7.91344e-010	8.12941e-010	7.7354e-010	8.28857e-010	8.25163e-010	8.06537e-010	7.51934e-010	-3.30196e-011	-3.80679e-011	-4.24501e-011	-4.63284e-011	-4.97998e-011	-5.27114e-011	-5.52547e-011	-5.74735e-011	-5.93635e-011	
CoarseR120	4.86164e-010	5.34311e-010	5.67869e-010	6.72825e-010	6.32847e-010	6.7385e-010	7.66425e-010	8.00535e-010	7.61861e-010	7.74327e-010	7.62943e-010	7.90558e-010	7.19483e-010	7.08343e-010	7.81635e-010	7.15817e-010	7.08893e-010	-2.91032e-011	-3.22697e-011	-3.6723e-011	-4.07396e-011	-4.42073e-011	-4.72766e-011	-4.99105e-011	-5.2156e-011	-5.41465e-011	
CoarseR130	4.8218e-010	5.36289e-010	6.15694e-010	6.63506e-010	6.75294e-010	7.25832e-010	7.3532e-010	7.01046e-010	7.88732e-010	7.97875e-010	7.75466e-010	7.29664e-010	8.17549e-010	7.84315e-010	7.21954e-010	7.30559e-010	7.43156e-010	-2.21297e-011	-2.72482e-011	-3.17798e-011	-3.58383e-011	-3.94157e-011	-4.25542e-011	-4.52389e-011	-4.76152e-011	-4.96623e-011	
CoarseR140	4.72876e-010	5.33204e-010	5.87326e-010	6.20857e-010	7.2338e-010	6.77147e-010	7.01564e-010	7.59678e-010	8.00898e-010	8.84801e-010	7.66698e-010	7.75062e-010	7.87322e-010	7.44421e-010	7.17083e-010	7.16901e-010	6.54219e-010	-1.77416e-011	-2.29161e-011	-2.75405e-011	-3.17194e-011	-3.53097e-011	-3.85749e-011	-4.13734e-011	-4.38028e-011	-4.59768e-011	
CoarseR150	4.83957e-010	5.61115e-010	6.17483e-010	6.22651e-010	6.78121e-010	7.20352e-010	7.859e-010	7.72591e-010	8.34819e-010	8.17802e-010	7.47913e-010	7.97632e-010	7.49621e-010	7.46078e-010	6.80695e-010	7.17128e-010	6.16138e-010	-1.40575e-011	-1.93368e-011	-2.40434e-011	-2.82472e-011	-3.18961e-011	-3.52239e-011	-3.81775e-011	-4.06389e-011	-4.28449e-011	
CoarseR160	5.09637e-010	5.30165e-010	6.04499e-010	6.23224e-010	6.98463e-010	7.44778e-010	7.78312e-010	7.44849e-010	7.60044e-010	7.18774e-010	7.51816e-010	7.22056e-010	7.78451e-010	7.04326e-010	6.7197e-010	7.2145e-010	6.01497e-010	-1.10059e-011	-1.63128e-011	-2.11511e-011	-2.54103e-011	-2.91995e-011	-3.25801e-011	-3.55394e-011	-3.8093e-011	-4.03464e-011	
CoarseR170	5.32906e-010	5.63742e-010	6.19481e-010	7.00062e-010	7.27935e-010	7.44479e-010	7.54284e-010	7.40907e-010	7.46231e-010	8.0336e-010	6.87485e-010	7.3475e-010	7.42609e-010	7.08595e-010	7.42082e-010	7.21607e-010	4.22345e-011	-8.62537e-012	-1.39467e-011	-1.87909e-011	-2.31639e-011	-2.70066e-011	-3.04379e-011	-3.34499e-011	-3.61381e-011	-3.84365e-011	
CoarseR180	5.56714e-010	5.81162e-010	6.39964e-010	6.53437e-010	7.1703e-010	7.07758e-010	7.27287e-010	6.86137e-010	7.80887e-010	7.79611e-010	7.527e-010	7.63087e-010	8.03324e-010	7.51862e-010	6.21338e-010	6.39431e-010	-7.57632e-013	-6.67492e-012	-1.21529e-011	-1.70367e-011	-2.13914e-011	-2.53223e-011	-2.88755e-011	-3.19026e-011	-3.46115e-011	-3.70216e-011	
CoarseR190	5.35221e-010	5.66634e-010	6.4e-010	6.61866e-010	7.05601e-010	7.03202e-010	8.13401e-010	7.95136e-010	7.58754e-010	7.83366e-010	7.71226e-010	7.78694e-010	7.46584e-010	7.0969e-010	7.1347e-010	6.54488e-010	6.73353e-013	-5.15923e-012	-1.069e-011	-1.56613e-011	-2.01877e-011	-2.41719e-011	-2.76887e-011	-3.08344e-011	-3.35916e-011	-3.60197e-011	
CoarseR200	5.67888e-010	5.78002e-010	6.26525e-010	6.84924e-010	7.54368e-010	7.17535e-010	7.77704e-010	7.95381e-010	7.97995e-010	8.42837e-010	7.45391e-010	7.19662e-010	7.64469e-010	7.05715e-010	6.72137e-010	6.38627e-010	1.55584e-012	-4.12619e-012	-9.74008e-012	-1.4765e-011	-1.92929e-011	-2.32971e-011	-2.69372e-011	-3.01754e-011	-3.29513e-011	-3.53962e-011	
CoarseR210	5.64412e-010	5.79381e-010	5.96766e-010	6.73486e-010	6.67928e-010	7.27198e-010	7.40787e-010	7.05174e-010	7.86143e-010	7.62359e-010	7.00333e-010	8.33709e-010	6.78425e-010	7.27191e-010	6.39439e-010	6.23593e-010	2.08103e-012	-3.52524e-012	-9.11128e-012	-1.42233e-011	-1.87637e-011	-2.28449e-011	-2.64939e-011	-2.98033e-011	-3.26533e-011	-3.51139e-011	
CoarseR220	5.62229e-010	5.84642e-010	6.22124e-010	6.67884e-010	6.71331e-010	7.91395e-010	7.50816e-010	7.41382e-010	7.31925e-010	7.8792e-010	8.11189e-010	7.44048e-010	6.89133e-010	6.68087e-010	7.21402e-010	6.0007e-010	2.24903e-012	-3.18965e-012	-8.78966e-012	-1.3942e-011	-1.8536e-011	-2.26704e-011	-2.63285e-011	-2.96241e-011	-3.25229e-011	-3.5089e-011	
CoarseR230	5.54516e-010	6.04855e-010	6.51883e-010	7.07204e-010	7.25529e-010	6.92494e-010	7.15274e-010	7.71946e-010	7.46172e-010	7.23181e-010	7.78452e-010	7.82819e-010	6.06565e-010	6.69101e-010	6.35187e-010	2.42795e-010	2.14908e-012	-3.1509e-012	-8.76276e-012	-1.39017e-011	-1.85496e-011	-2.277e-011	-2.64784e-011	-2.98128e-011	-3.26746e-011	-3.52429e-011	
CoarseR240	5.52492e-010	6.27499e-010	6.68595e-010	6.84692e-010	6.63764e-010	7.41608e-010	7.65453e-010	7.23143e-010	7.3863e-010	7.85117e-010	8.19434e-010	7.46385e-010	6.73285e-010	6.4534e-010	6.17163e-010	4.50354e-010	1.9042e-012	-3.34032e-012	-8.85559e-012	-1.41173e-011	-1.8733e-011	-2.30177e-011	-2.67486e-011	-3.01074e-011	-3.29797e-011	-3.55549e-011	
CoarseR250	6.00139e-010	6.26195e-010	6.49524e-010	6.69753e-010	7.4148e-010	6.97471e-010	7.40941e-010	7.69565e-010	7.84785e-010	7.84512e-010	7.30372e-010	7.55552e-010	5.8601e-010	6.27303e-010	6.09596e-010	1.82404e-010	1.54068e-012	-3.73897e-012	-9.15085e-012	-1.43895e-011	-1.90946e-011	-2.33302e-011	-2.71193e-011	-3.04998e-011	-3.34282e-011	-3.5962e-011	
MinCout:	6.73353e-013	CoarseR:	190	CoarseC:	160

	CoarseC160	CoarseC161	CoarseC162	CoarseC163	CoarseC164	CoarseC165	CoarseC166	CoarseC167	CoarseC168	CoarseC169	CoarseC170	CoarseC171	CoarseC172	CoarseC173	CoarseC174	CoarseC175	CoarseC176	CoarseC177	CoarseC178	CoarseC179	CoarseC180	
CoarseR130	7.15358e-010	7.79285e-010	8.27103e-010	7.55613e-010	7.86687e-010	7.30782e-010	6.98904e-010	3.34272e-010	7.59234e-010	2.71812e-011	4.02263e-010	-1.09427e-011	3.63839e-010	-2.38565e-011	-2.63111e-011	-2.68834e-011	-2.72476e-011	-2.58329e-011	-2.62875e-011	-2.6809e-011	-2.73378e-011	
CoarseR131	7.66005e-010	7.31049e-010	7.63042e-010	7.43001e-010	7.49373e-010	6.81529e-010	7.03262e-010	6.81148e-010	9.94809e-011	7.45545e-010	-1.72512e-011	6.74697e-010	-2.28899e-011	7.0087e-010	-2.39192e-011	-2.4406e-011	-2.67326e-011	-2.5418e-011	-2.58947e-011	-2.63789e-011	-2.69074e-011	
CoarseR132	7.43326e-010	7.83498e-010	7.41513e-010	6.66593e-010	7.65703e-010	7.03811e-010	7.30766e-010	3.50567e-010	7.16967e-010	1.6468e-011	4.65615e-010	-1.49797e-011	4.89061e-010	-2.29561e-011	-2.54582e-011	-2.59552e-011	-2.44978e-011	-2.49814e-011	-2.5428e-011	-2.59118e-011	-2.64364e-011	
CoarseR133	6.94573e-010	6.97105e-010	6.77165e-010	7.40606e-010	7.34724e-010	7.19098e-010	6.33755e-010	4.12372e-010	2.26193e-010	1.80412e-010	1.17867e-010	9.32826e-011	3.77501e-011	-2.07392e-011	-2.49485e-011	-2.54826e-011	-2.40735e-011	-2.45937e-011	-2.50359e-011	-2.54823e-011	-2.60137e-011	
CoarseR134	6.93468e-010	7.42456e-010	7.22584e-010	6.75732e-010	6.55408e-010	7.18589e-010	6.33975e-010	2.69881e-010	2.26207e-010	1.6139e-010	7.28957e-011	9.40621e-011	1.10994e-011	-2.40062e-011	-2.46103e-011	-2.50023e-011	-2.36491e-011	-2.41277e-011	-2.46181e-011	-2.51011e-011	-2.5577e-011	
CoarseR135	6.98288e-010	7.52415e-010	7.82155e-010	7.21946e-010	7.24669e-010	7.10375e-010	5.42204e-010	2.72955e-010	2.27964e-010	9.03437e-011	1.20939e-010	4.97042e-011	3.03104e-011	-2.17949e-011	6.67867e-010	-2.26768e-011	-2.31773e-011	-2.36926e-011	-2.419e-011	-2.46727e-011	-2.51925e-011	
CoarseR136	-1.74264e-011	6.93792e-010	6.7738e-010	6.98679e-010	6.85097e-010	5.57124e-010	4.26688e-010	2.70162e-010	1.67264e-010	1.22097e-010	7.97317e-011	7.86239e-011	6.13871e-013	-2.13765e-011	-2.36564e-011	-2.41486e-011	-2.27463e-011	-2.32989e-011	-2.3755e-011	-2.42817e-011	-2.48085e-011	
CoarseR137	-1.69739e-011	-1.75207e-011	6.84435e-010	7.00908e-010	5.89165e-010	3.61383e-010	2.88042e-010	1.80137e-010	6.76714e-010	7.21507e-010	-1.92793e-011	7.14548e-010	-2.03121e-011	6.71576e-010	-2.13049e-011	-2.37295e-011	-2.23643e-011	-2.28419e-011	-2.34092e-011	-2.38911e-011	-2.43691e-011	
CoarseR138	-1.65214e-011	-1.69969e-011	-1.77266e-011	6.64615e-010	6.12918e-010	4.36067e-010	2.21894e-010	1.57082e-010	6.16159e-010	6.31368e-010	-1.89412e-011	7.12916e-010	-1.99169e-011	6.28396e-010	-2.09091e-011	-2.15764e-011	-2.19343e-011	-2.2497e-011	-2.29785e-011	-2.34676e-011	-2.39862e-011	
CoarseR139	-1.6236e-011	-1.67523e-011	-1.7265e-011	7.25468e-010	6.98919e-010	3.11519e-010	2.38627e-010	8.54088e-011	1.87438e-010	1.90896e-011	7.42528e-010	-1.89311e-011	7.41008e-010	-2.00149e-011	-2.24426e-011	-2.1051e-011	-2.15427e-011	-2.20681e-011	-2.25675e-011	-2.30856e-011	-2.36038e-011	
CoarseR140	-1.56748e-011	-1.63212e-011	-1.69184e-011	-1.7513e-011	7.01539e-010	6.61334e-010	-1.72186e-011	6.97974e-010	-1.83481e-011	7.2014e-010	-1.93943e-011	6.70311e-010	-1.91358e-011	6.50187e-010	-2.01192e-011	-2.06516e-011	-2.1143e-011	-2.16757e-011	-2.21639e-011	-2.26598e-011	-2.31776e-011	
CoarseR141	-1.52447e-011	-1.59715e-011	-1.64204e-011	-1.70924e-011	-1.57575e-011	6.66468e-010	-1.69431e-011	6.38201e-010	-1.80169e-011	6.44933e-010	-1.91453e-011	6.26716e-010	-1.87608e-011	-2.11852e-011	-1.98994e-011	-2.02636e-011	-2.0759e-011	-2.12913e-011	-2.17792e-011	-2.22673e-011	-2.27847e-011	
CoarseR142	-1.50452e-011	-1.55413e-011	-1.6212e-011	-1.66752e-011	-1.54527e-011	-1.60316e-011	7.01397e-010	-1.71307e-011	6.48784e-010	-1.81888e-011	6.92981e-010	-1.92141e-011	6.54758e-010	-1.88657e-011	-1.94159e-011	-1.99476e-011	-2.04016e-011	-2.09259e-011	-2.13843e-011	-2.19088e-011	-2.24442e-011	
CoarseR143	-1.46551e-011	-1.50575e-011	-1.56967e-011	-1.64203e-011	-1.69191e-011	-1.55711e-011	7.39248e-010	-1.67321e-011	6.94397e-010	-1.78235e-011	-2.04217e-011	-1.88242e-011	-1.95109e-011	-1.86367e-011	6.75512e-010	-1.95359e-011	-2.00229e-011	-2.05318e-011	-2.10374e-011	-2.15248e-011	-2.2049e-011	
CoarseR144	-1.43697e-011	-1.48321e-011	-1.52408e-011	-1.58734e-011	-1.64211e-011	-1.71076e-011	6.99932e-010	-1.63375e-011	-1.69188e-011	7.12236e-010	-1.80385e-011	6.82174e-010	-1.90778e-011	7.07705e-010	-1.86444e-011	-1.91755e-011	-1.96959e-011	-2.02302e-011	-2.06803e-011	-2.12041e-011	-2.16837e-011	
CoarseR145	-1.39064e-011	-1.44704e-011	-1.497e-011	-1.55905e-011	-1.61597e-011	-1.66292e-011	7.56121e-010	-1.59283e-011	7.22231e-010	-1.70272e-011	-1.9568e-011	-1.81786e-011	-1.87525e-011	-1.92802e-011	-1.83676e-011	-1.88982e-011	-1.93478e-011	-1.98773e-011	-2.03271e-011	-2.08137e-011	-2.13372e-011	
CoarseR146	-1.361e-011	-1.39726e-011	-1.47428e-011	-1.52505e-011	-1.5897e-011	-1.62619e-011	-1.5042e-011	7.13243e-010	-1.6135e-011	6.34368e-010	-1.72792e-011	-1.78774e-011	7.04312e-010	-1.88846e-011	-1.93847e-011	-1.85128e-011	-1.90065e-011	-1.95185e-011	-2.00154e-011	-2.05017e-011	-2.0976e-011	
CoarseR147	-1.31176e-011	-1.38022e-011	-1.42839e-011	-1.49475e-011	-1.5409e-011	-1.60975e-011	-1.65873e-011	-1.52903e-011	6.32704e-010	-1.62915e-011	-1.73898e-011	-1.74831e-011	-1.80116e-011	6.9459e-010	-1.89737e-011	-1.95746e-011	-1.86551e-011	-1.91775e-011	-1.96633e-011	-2.01491e-011	-2.06718e-011	
CoarseR148	-1.29216e-011	-1.34096e-011	-1.39078e-011	-1.44952e-011	-1.51017e-011	-1.56306e-011	-1.6191e-011	-1.49426e-011	-1.55171e-011	2.03598e-010	-1.65666e-011	6.72254e-010	-1.76392e-011	-1.81654e-011	-1.87804e-011	-1.92467e-011	-1.97535e-011	-1.88599e-011	-1.93561e-011	-1.98416e-011	-2.03639e-011	
CoarseR149	-1.26083e-011	-1.30234e-011	-1.36036e-011	-1.42016e-011	-1.48379e-011	-1.53391e-011	-1.5811e-011	-1.4667e-011	-1.52133e-011	3.65794e-010	-1.61744e-011	6.64928e-010	-1.73313e-011	-1.77576e-011	-1.829e-011	-1.89076e-011	-1.93699e-011	-1.99768e-011	-1.90049e-011	-1.94901e-011	-2.00012e-011	
CoarseR150	-1.23419e-011	-1.28436e-011	-1.31379e-011	-1.39111e-011	-1.4554e-011	-1.50982e-011	-1.55834e-011	-1.62609e-011	-1.47954e-011	6.97886e-010	-1.58849e-011	-1.64453e-011	6.90007e-010	-1.75211e-011	-1.78551e-011	-1.84804e-011	-1.90611e-011	-1.96454e-011	-1.86959e-011	-1.91806e-011	-1.96943e-011	
MinCout:	6.13871e-013	CoarseR:	136	CoarseC:	172

	FineC0	FineC10	FineC20	FineC30	FineC40	FineC50	FineC60	FineC70	FineC80	FineC90	FineC100	FineC110	FineC120	FineC130	FineC140	FineC150	FineC160	FineC170	FineC180	FineC190	FineC200	FineC210	FineC220	FineC230	FineC240	FineC250	
FineR0	-2.14976e-013	-5.21011e-012	-8.4702e-012	-1.06728e-011	-1.25018e-011	8.61257e-010	7.07657e-010	7.26409e-010	8.07753e-010	7.77882e-010	7.8447e-010	8.07947e-010	7.35015e-010	7.12261e-010	7.40806e-010	7.63159e-010	7.23597e-010	7.53451e-010	6.987e-010	7.45658e-010	7.31925e-010	6.77296e-010	6.7688e-010	7.36962e-010	6.81876e-010	7.16967e-010	
FineR10	2.06875e-012	-3.05976e-012	-6.24172e-012	-8.63207e-012	-1.03037e-011	7.5018e-010	7.50702e-010	7.88826e-010	7.46776e-010	6.89795e-010	8.00618e-010	7.5984e-010	7.65122e-010	6.95469e-010	7.58504e-010	7.26654e-010	7.52054e-010	7.65973e-010	7.2161e-010	7.05098e-010	7.17224e-010	7.57421e-010	7.15127e-010	6.88802e-010	7.29513e-010	6.75027e-010	
FineR20	2.62204e-012	-2.48424e-012	-5.73914e-012	-7.93738e-012	-9.83674e-012	-9.29214e-012	7.6447e-010	7.45763e-010	6.74803e-010	7.08865e-010	7.12095e-010	6.98643e-010	7.68729e-010	6.85838e-010	6.97762e-010	7.58761e-010	7.64451e-010	7.48957e-010	7.22605e-010	7.53229e-010	6.36116e-010	7.85899e-010	7.1467e-010	6.66265e-010	7.01368e-010	7.105e-010	
FineR30	2.925e-012	-2.20522e-012	-5.38864e-012	-7.85143e-012	-9.61125e-012	7.07237e-010	6.97957e-010	6.73393e-010	6.9265e-010	6.71486e-010	8.00707e-010	7.07897e-010	7.75808e-010	7.21147e-010	7.22573e-010	6.92892e-010	6.8195e-010	6.36253e-010	7.45235e-010	6.19351e-010	7.02077e-010	6.27994e-010	6.64875e-010	7.35728e-010	7.1688e-010	6.43622e-010	
FineR40	2.90566e-012	-2.09593e-012	-5.41824e-012	-7.62083e-012	-9.40015e-012	6.79229e-010	7.23386e-010	7.18867e-010	6.60516e-010	7.40648e-010	7.17961e-010	7.33634e-010	7.22703e-010	6.56137e-010	6.73321e-010	7.03989e-010	7.77994e-010	6.65334e-010	6.75537e-010	7.21044e-010	6.97882e-010	7.23084e-010	7.29722e-010	7.58751e-010	6.84567e-010	7.06051e-010	
FineR50	2.95071e-012	-2.213e-012	-5.32616e-012	-7.64998e-012	-9.29484e-012	8.4367e-010	7.0275e-010	6.90048e-010	7.0308e-010	8.1567e-010	7.96004e-010	7.21014e-010	7.28492e-010	7.34367e-010	7.19736e-010	7.60393e-010	7.07732e-010	6.96286e-010	7.63009e-010	7.15777e-010	6.98877e-010	6.85457e-010	6.99891e-010	6.93604e-010	7.24875e-010	6.93418e-010	
FineR60	2.99372e-012	-2.10877e-012	-5.39323e-012	-7.70153e-012	-9.27157e-012	7.25549e-010	7.65143e-010	6.51534e-010	7.36835e-010	6.39321e-010	6.95429e-010	6.81281e-010	7.18971e-010	7.5257e-010	6.83744e-010	6.99675e-010	7.04824e-010	7.32225e-010	6.5677e-010	6.76841e-010	6.94796e-010	6.8503e-010	7.08062e-010	7.21251e-010	6.79387e-010	7.2551e-010	
FineR70	3.01645e-012	-2.17123e-012	-5.26465e-012	-7.69192e-012	-9.29477e-012	7.25696e-010	7.04015e-010	7.42183e-010	7.02289e-010	6.75293e-010	6.89674e-010	6.7911e-010	6.95943e-010	7.05941e-010	7.23962e-010	7.34425e-010	6.87169e-010	7.03174e-010	7.03013e-010	7.48853e-010	7.28898e-010	6.90494e-010	7.17085e-010	6.43686e-010	6.60293e-010	6.89054e-010	
FineR80	2.95431e-012	-1.93136e-012	-5.17353e-012	-7.58973e-012	-9.17928e-012	7.29258e-010	7.00721e-010	7.93317e-010	7.29995e-010	7.07957e-010	7.57924e-010	7.17139e-010	6.50224e-010	6.68488e-010	7.23946e-010	6.77859e-010	7.10998e-010	6.8656e-010	6.95996e-010	6.27416e-010	7.62466e-010	7.08109e-010	6.89392e-010	7.03689e-010	6.47296e-010	6.67903e-010	
FineR90	2.88905e-012	-2.12242e-012	-5.22041e-012	-7.54087e-012	-9.27003e-012	7.0245e-010	7.88796e-010	6.56085e-010	7.30979e-010	6.47485e-010	7.28302e-010	7.3098e-010	6.72582e-010	6.97347e-010	7.22834e-010	7.80973e-010	6.51092e-010	7.32581e-010	7.20838e-010	6.27924e-010	6.93094e-010	6.97478e-010	6.94127e-010	7.00948e-010	6.78865e-010	6.76112e-010	
FineR100	2.95911e-012	-2.0293e-012	-5.23754e-012	-7.54758e-012	-9.36847e-012	6.69459e-010	7.44033e-010	7.1776e-010	6.87681e-010	7.8364e-010	6.52079e-010	7.13951e-010	6.51177e-010	8.17175e-010	6.9421e-010	7.07693e-010	6.78047e-010	6.84846e-010	6.51175e-010	6.68249e-010	7.0989e-010	7.48535e-010	7.10898e-010	6.4994e-010	6.83925e-010	7.02216e-010	
FineR110	2.9382e-012	-2.06826e-012	-5.07925e-012	-7.72044e-012	-9.33184e-012	8.23891e-010	6.70223e-010	6.56098e-010	7.29812e-010	7.45211e-010	7.08119e-010	6.85578e-010	6.80406e-010	7.29102e-010	6.573e-010	6.91994e-010	7.14419e-010	6.63416e-010	6.96884e-010	6.88131e-010	6.74375e-010	6.86711e-010	6.46337e-010	6.62219e-010	6.8815e-010	7.57693e-010	
FineR120	3.04888e-012	-2.11759e-012	-5.04587e-012	-7.52879e-012	-9.33797e-012	7.68576e-010	7.28335e-010	6.81752e-010	6.67781e-010	6.57378e-010	6.7032e-010	7.53561e-010	7.45692e-010	6.83045e-010	7.33434e-010	7.28404e-010	6.59235e-010	6.8552e-010	7.08759e-010	6.76726e-010	6.99497e-010	7.17684e-010	6.62686e-010	6.90736e-010	6.89136e-010	7.30043e-010	
FineR130	2.95512e-012	-2.06153e-012	-5.21516e-012	-7.52418e-012	-9.34719e-012	7.55921e-010	7.90453e-010	6.64913e-010	7.23074e-010	6.4155e-010	6.64494e-010	7.06017e-010	6.56041e-010	6.92304e-010	6.88456e-010	7.45346e-010	7.10134e-010	6.65187e-010	6.53266e-010	6.87858e-010	6.52574e-010	7.33523e-010	6.44974e-010	6.10612e-010	6.26787e-010	6.8272e-010	
FineR140	3.02218e-012	-2.07022e-012	-5.20288e-012	-7.58564e-012	-9.39441e-012	7.32263e-010	7.35606e-010	7.19084e-010	6.93967e-010	7.19556e-010	6.84466e-010	6.96546e-010	7.10916e-010	6.73903e-010	6.88316e-010	7.01078e-010	6.73056e-010	7.05816e-010	7.07645e-010	7.06665e-010	6.6429e-010	7.0734e-010	7.31152e-010	6.72248e-010	6.88489e-010	6.72747e-010	
FineR150	2.94744e-012	-2.0789e-012	-5.25149e-012	-7.75666e-012	-9.34474e-012	7.6119e-010	7.55744e-010	6.99856e-010	7.23418e-010	7.67866e-010	7.9774e-010	6.52334e-010	6.91603e-010	6.20403e-010	6.67152e-010	7.93995e-010	7.69509e-010	7.09045e-010	6.65598e-010	6.46574e-010	6.87588e-010	6.78447e-010	7.02817e-010	6.79832e-010	6.6114e-010	6.95035e-010	
FineR160	2.94483e-012	-2.07028e-012	-5.12977e-012	-7.65977e-012	-9.42626e-012	7.90426e-010	7.40069e-010	7.45511e-010	6.79961e-010	7.53637e-010	7.45843e-010	7.51973e-010	7.10001e-010	6.92972e-010	6.43423e-010	7.57124e-010	6.96142e-010	6.45405e-010	6.84146e-010	7.14769e-010	6.95804e-010	7.09076e-010	7.21596e-010	6.95581e-010	6.61233e-010	7.06664e-010	
FineR170	3.02512e-012	-2.03918e-012	-5.26468e-012	-7.87277e-012	-9.29508e-012	7.74771e-010	6.75082e-010	6.83253e-010	7.52373e-010	7.25623e-010	6.75807e-010	6.91354e-010	7.00775e-010	7.05079e-010	6.6643e-010	6.64945e-010	6.47972e-010	6.90641e-010	7.01782e-010	7.49825e-010	6.77236e-010	6.73759e-010	7.20088e-010	6.97881e-010	6.33414e-010	7.52845e-010	
FineR180	2.95165e-012	-2.17911e-012	-5.25683e-012	-7.60954e-012	-9.4604e-012	7.85011e-010	7.3157e-010	7.13979e-010	6.66668e-010	7.51938e-010	7.16199e-010	7.56366e-010	6.76541e-010	7.42589e-010	7.18131e-010	6.86009e-010	7.55404e-010	7.18268e-010	6.7297e-010	7.55714e-010	6.76821e-010	6.75184e-010	6.89769e-010	6.93991e-010	7.47319e-010	7.08599e-010	
FineR190	2.85984e-012	-2.11351e-012	-5.25683e-012	-7.75513e-012	-9.45057e-012	7.41885e-010	7.07353e-010	6.91623e-010	7.47003e-010	7.00078e-010	7.47965e-010	7.49886e-010	6.86201e-010	7.55e-010	6.96519e-010	6.33373e-010	6.83736e-010	7.14292e-010	6.7696e-010	7.19633e-010	6.37023e-010	8.29688e-010	6.26972e-010	6.63351e-010	6.64717e-010	6.75037e-010	
FineR200	2.89652e-012	-2.29326e-012	-5.23367e-012	-7.7074e-012	-9.31774e-012	7.31209e-010	7.27959e-010	7.22397e-010	6.65924e-010	6.38629e-010	6.96732e-010	7.45859e-010	6.94891e-010	7.05832e-010	7.04758e-010	7.07022e-010	6.99938e-010	6.90652e-010	6.83069e-010	6.98058e-010	6.51063e-010	7.38569e-010	6.84801e-010	7.48491e-010	6.8736e-010	6.86235e-010	
FineR210	2.88639e-012	-2.19038e-012	-5.47245e-012	-7.73358e-012	-9.46561e-012	8.13421e-010	6.99459e-010	7.12031e-010	7.43276e-010	6.9001e-010	7.44252e-010	7.11101e-010	7.14319e-010	7.43118e-010	6.72431e-010	7.11757e-010	7.01435e-010	6.8574e-010	6.85539e-010	7.22346e-010	6.75447e-010	6.76193e-010	6.78325e-010	6.52533e-010	6.78299e-010	6.69776e-010	
FineR220	2.71681e-012	-2.21193e-012	-5.25948e-012	-7.66319e-012	-9.43211e-012	7.38923e-010	8.08627e-010	6.71067e-010	6.94599e-010	7.12232e-010	7.08437e-010	7.14001e-010	6.79394e-010	6.63885e-010	7.26139e-010	6.87662e-010	7.26413e-010	6.53156e-010	7.27953e-010	6.93276e-010	6.95835e-010	6.19275e-010	6.56862e-010	7.127e-010	7.29128e-010	6.79507e-010	
FineR230	2.89268e-012	-2.26893e-012	-5.41186e-012	-7.74161e-012	-9.51043e-012	7.38438e-010	6.75639e-010	7.69465e-010	7.78784e-010	7.66136e-010	6.71908e-010	6.31485e-010	7.14001e-010	7.42301e-010	7.14082e-010	6.85637e-010	7.69486e-010	6.98867e-010	7.37072e-010	6.18879e-010	7.50781e-010	7.19931e-010	6.67861e-010	6.83412e-010	6.70132e-010	6.92227e-010	
FineR240	2.85339e-012	-2.13157e-012	-5.30647e-012	-7.75179e-012	-9.49974e-012	7.37542e-010	6.89769e-010	7.67075e-010	7.06837e-010	7.3827e-010	6.67139e-010	6.14591e-010	6.77467e-010	7.16236e-010	7.10813e-010	6.50932e-010	6.62288e-010	6.89296e-010	6.66021e-010	7.22925e-010	6.77627e-010	6.87975e-010	6.51911e-010	7.33369e-010	6.46847e-010	6.93481e-010	
FineR250	2.787e-012	-2.11084e-012	-5.16916e-012	-7.76736e-012	-9.41674e-012	7.22592e-010	7.35813e-010	7.16848e-010	6.90208e-010	7.60493e-010	6.96025e-010	6.63821e-010	6.31018e-010	7.8531e-010	7.53144e-010	6.46748e-010	6.65587e-010	7.17518e-010	7.04928e-010	7.094e-010	6.76336e-010	7.52307e-010	6.77839e-010	7.03365e-010	6.99314e-010	6.68572e-010	
MinCout:	-2.14976e-013	FineR:	0	FineC:	0

	FineC40	FineC41	FineC42	FineC43	FineC44	FineC45	FineC46	FineC47	FineC48	FineC49	FineC50	FineC51	FineC52	FineC53	FineC54	FineC55	FineC56	FineC57	FineC58	FineC59	FineC60	
FineR10	7.60862e-010	7.59234e-010	7.92921e-010	7.63269e-010	7.79298e-010	7.8568e-010	7.90458e-010	7.64712e-010	7.63018e-010	7.67837e-010	7.92467e-010	7.68868e-010	7.47722e-010	7.74683e-010	7.39556e-010	7.29338e-010	8.04178e-010	7.58044e-010	7.24677e-010	6.97499e-010	7.60669e-010	
FineR11	8.06609e-010	7.43442e-010	8.24326e-010	7.66406e-010	7.08714e-010	7.65913e-010	6.80418e-010	7.98416e-010	8.549e-010	7.5296e-010	7.49487e-010	6.95923e-010	7.75352e-010	7.62349e-010	7.38902e-010	7.02147e-010	6.94592e-010	7.21877e-010	7.25834e-010	6.71362e-010	7.26501e-010	
FineR12	7.67277e-010	7.71641e-010	7.6655e-010	7.39615e-010	7.79424e-010	7.28529e-010	6.94809e-010	8.3178e-010	7.80907e-010	7.22081e-010	7.46778e-010	7.6872e-010	7.44832e-010	7.38092e-010	7.72827e-010	7.21233e-010	6.81638e-010	7.61219e-010	7.02713e-010	7.28376e-010	7.61164e-010	
FineR13	7.87252e-010	7.6728e-010	7.52586e-010	7.5302e-010	7.9901e-010	7.19452e-010	7.21994e-010	7.30598e-010	7.5606e-010	7.01685e-010	7.53984e-010	7.30716e-010	7.31523e-010	6.99723e-010	7.32572e-010	7.61911e-010	6.91458e-010	7.35562e-010	8.32381e-010	7.70629e-010	7.10983e-010	
FineR14	7.27793e-010	7.2712e-010	7.61766e-010	7.6845e-010	7.77153e-010	7.59665e-010	7.59897e-010	8.04422e-010	7.85609e-010	6.52415e-010	7.82403e-010	7.39206e-010	7.52064e-010	8.05074e-010	6.89763e-010	7.55034e-010	7.45113e-010	7.7473e-010	7.19879e-010	7.21261e-010	7.87881e-010	
FineR15	8.00998e-010	7.03624e-010	7.33357e-010	8.89112e-010	7.83262e-010	7.27047e-010	7.69309e-010	7.62057e-010	7.46884e-010	7.42159e-010	6.81485e-010	8.01654e-010	7.51386e-010	8.14906e-010	7.93011e-010	7.3636e-010	7.66801e-010	7.51842e-010	7.19702e-010	7.86494e-010	7.82658e-010	
FineR16	7.29843e-010	7.95049e-010	8.19785e-010	7.72234e-010	7.41445e-010	7.52542e-010	7.93569e-010	6.39819e-010	7.52592e-010	7.89681e-010	7.76098e-010	7.38923e-010	7.06045e-010	7.21806e-010	7.27647e-010	7.26199e-010	7.60657e-010	6.78225e-010	7.00329e-010	6.48607e-010	7.31591e-010	
FineR17	7.8041e-010	7.32042e-010	8.1958e-010	7.82472e-010	7.22685e-010	8.15121e-010	7.26201e-010	7.90035e-010	7.69184e-010	7.20482e-010	7.584e-010	7.19631e-010	7.17896e-010	6.90516e-010	7.65606e-010	7.81885e-010	7.51033e-010	7.34683e-010	7.5373e-010	7.60087e-010	7.53445e-010	
FineR18	7.65107e-010	7.62733e-010	7.75568e-010	7.37336e-010	6.6888e-010	8.20838e-010	7.95208e-010	7.80818e-010	6.86041e-010	7.32848e-010	6.803e-010	7.3505e-010	7.62433e-010	7.268e-010	7.89597e-010	7.59449e-010	7.33233e-010	7.84645e-010	8.16311e-010	6.96335e-010	7.45922e-010	
FineR19	7.2723e-010	8.21012e-010	7.0607e-010	7.85176e-010	7.48896e-010	7.51498e-010	7.33333e-010	7.56911e-010	7.5017e-010	7.24276e-010	6.74315e-010	7.76519e-010	7.51143e-010	7.34166e-010	7.09111e-010	7.48246e-010	7.13592e-010	7.29026e-010	6.99352e-010	7.26229e-010	7.93704e-010	
FineR20	7.98223e-010	6.68956e-010	7.41464e-010	7.85095e-010	7.46812e-010	7.11363e-010	7.59583e-010	7.26846e-010	7.63773e-010	7.04313e-010	7.89896e-010	8.14887e-010	7.72536e-010	7.34698e-010	7.63473e-010	6.67006e-010	7.51362e-010	7.13157e-010	7.53381e-010	7.33865e-010	7.39273e-010	
FineR21	7.41189e-010	8.36714e-010	7.46772e-010	7.2615e-010	7.98265e-010	7.45194e-010	7.74335e-010	7.1886e-010	7.59042e-010	7.40808e-010	6.8812e-010	7.51115e-010	7.65554e-010	7.96584e-010	7.32561e-010	7.21803e-010	8.1131e-010	7.9086e-010	7.41856e-010	7.38677e-010	7.57496e-010	
FineR22	7.3425e-010	7.3289e-010	8.04581e-010	7.11483e-010	7.96557e-010	7.42722e-010	7.40458e-010	7.62815e-010	7.8321e-010	7.3926e-010	7.74419e-010	6.70124e-010	8.02224e-010	6.82655e-010	7.30005e-010	7.69197e-010	7.60486e-010	7.46941e-010	7.28929e-010	8.05369e-010	7.09766e-010	
FineR23	7.90979e-010	7.52381e-010	6.93864e-010	7.30182e-010	7.64482e-010	7.90372e-010	8.27677e-010	7.05988e-010	7.30573e-010	7.66111e-010	7.79763e-010	7.99744e-010	7.43256e-010	7.19613e-010	7.02312e-010	7.32237e-010	7.62906e-010	7.23952e-010	7.83347e-010	7.86853e-010	7.34633e-010	
FineR24	7.81726e-010	7.87962e-010	7.76494e-010	7.0847e-010	7.61297e-010	7.68855e-010	7.48489e-010	7.2254e-010	7.63127e-010	7.30998e-010	7.16334e-010	7.94339e-010	7.76242e-010	8.11366e-010	7.51064e-010	7.05038e-010	7.23966e-010	7.30167e-010	7.7805e-010	7.30851e-010	7.39357e-010	
FineR25	7.67631e-010	6.93983e-010	7.17869e-010	7.65795e-010	7.66162e-010	7.65601e-010	7.42443e-010	7.47805e-010	7.55166e-010	7.16676e-010	7.11612e-010	7.59237e-010	7.78409e-010	7.39783e-010	7.24648e-010	7.61333e-010	6.91462e-010	7.43973e-010	6.63069e-010	7.65957e-010	6.76026e-010	
FineR26	7.93509e-010	6.80196e-010	7.18809e-010	7.32327e-010	7.17206e-010	7.20556e-010	7.35105e-010	6.9191e-010	7.24515e-010	7.57527e-010	7.16279e-010	7.89578e-010	7.43327e-010	7.261e-010	7.25657e-010	7.26079e-010	6.80069e-010	7.61607e-010	7.47835e-010	7.28783e-010	7.35405e-010	
FineR27	7.34369e-010	7.6813e-010	7.67839e-010	7.19083e-010	6.98802e-010	7.1252e-010	7.40887e-010	7.1316e-010	6.85633e-010	7.60598e-010	7.13854e-010	7.4577e-010	7.47625e-010	7.83298e-010	7.54441e-010	7.44e-010	7.59366e-010	7.15302e-010	7.33964e-010	7.61441e-010	7.51424e-010	
FineR28	6.50852e-010	7.66227e-010	7.10482e-010	7.67575e-010	7.02309e-010	6.9518e-010	7.16479e-010	7.23764e-010	7.40952e-010	7.57991e-010	7.19877e-010	7.34933e-010	6.62118e-010	7.12689e-010	7.32028e-010	7.30569e-010	7.1372e-010	7.48192e-010	7.49376e-010	7.47395e-010	6.84859e-010	
FineR29	8.2815e-010	6.86447e-010	7.10591e-010	7.24051e-010	7.52722e-010	6.85883e-010	7.35815e-010	7.45118e-010	7.45645e-010	6.6091e-010	7.29702e-010	7.00227e-010	7.14212e-010	7.2227e-010	6.97215e-010	7.13441e-010	7.29021e-010	6.95496e-010	7.88058e-010	6.70217e-010	7.5325e-010	
FineR30	7.0802e-010	7.6859e-010	7.76176e-010	8.2598e-010	7.3441e-010	8.02719e-010	7.23278e-010	6.86068e-010	7.18107e-010	7.1134e-010	7.41392e-010	7.69815e-010	7.46247e-010	7.52692e-010	8.06801e-010	7.51026e-010	6.82806e-010	7.49988e-010	7.28149e-010	8.13034e-010	6.99679e-010	
MinCout:	6.39819e-010	FineR:	16	FineC:	47

