	CoarseC0	CoarseC10	CoarseC20	CoarseC30	CoarseC40	CoarseC50	CoarseC60	CoarseC70	CoarseC80	CoarseC90	CoarseC100	CoarseC110	CoarseC120	CoarseC130	CoarseC140	CoarseC150	CoarseC160	CoarseC170	CoarseC180	CoarseC190	CoarseC200	CoarseC210	CoarseC220	CoarseC230	CoarseC240	CoarseC250	
CoarseR0	-2.96995e-010	-2.81213e-010	-2.70586e-010	-2.62368e-010	-2.56397e-010	-2.52027e-010	-2.48565e-010	-2.45833e-010	-2.43697e-010	-2.4189e-010	-2.40656e-010	-2.4017e-010	-2.39478e-010	-2.38922e-010	-2.38756e-010	-2.39298e-010	-2.39811e-010	-2.40109e-010	-2.40073e-010	-2.39777e-010	-2.39178e-010	-2.38225e-010	-2.36981e-010	-2.35612e-010	-2.34003e-010	-2.32248e-010	
CoarseR10	-2.17477e-010	-2.04339e-010	-1.95694e-010	-1.89077e-010	-1.84135e-010	-1.80825e-010	-1.78706e-010	-1.77275e-010	-1.76523e-010	-1.76116e-010	-1.76063e-010	-1.77176e-010	-1.78903e-010	-1.80643e-010	-1.82276e-010	-1.83619e-010	-1.84819e-010	-1.8577e-010	-1.86425e-010	-1.86862e-010	-1.87078e-010	-1.87103e-010	-1.86956e-010	-1.86533e-010	-1.86125e-010	-1.85628e-010	
CoarseR20	-1.56665e-010	-1.4578e-010	-1.38695e-010	-1.33584e-010	-1.30395e-010	-1.28201e-010	-1.26696e-010	-1.25989e-010	-1.26499e-010	-1.28237e-010	-1.30291e-010	-1.32522e-010	-1.34736e-010	-1.36927e-010	-1.39034e-010	-1.40899e-010	-1.42739e-010	-1.44449e-010	-1.46001e-010	-1.47482e-010	-1.48798e-010	-1.50146e-010	-1.51948e-010	-1.5393e-010	-1.5539e-010	-1.56432e-010	
CoarseR30	-1.11421e-010	-1.00565e-010	-9.49735e-011	-9.11875e-011	-8.85202e-011	-8.69187e-011	-8.68013e-011	-8.8025e-011	-8.98453e-011	-9.1928e-011	-9.42392e-011	-9.66524e-011	-9.92648e-011	-1.01945e-010	-1.04659e-010	-1.07269e-010	-1.10018e-010	-1.12747e-010	-1.15646e-010	-1.19014e-010	-1.23074e-010	-1.26466e-010	-1.29179e-010	-1.31362e-010	-1.33089e-010	-1.34458e-010	
CoarseR40	4.23605e-010	-6.77554e-011	-6.14959e-011	-5.82647e-011	-5.65077e-011	-5.63902e-011	-5.7344e-011	-5.8737e-011	-6.06503e-011	-6.28772e-011	-6.53783e-011	-6.81706e-011	-7.11107e-011	-7.4268e-011	-7.76547e-011	-8.11717e-011	-8.51082e-011	-8.98631e-011	-9.55394e-011	-1.0045e-010	-1.04549e-010	-1.08025e-010	-1.10921e-010	-1.13315e-010	-1.15145e-010	-1.16607e-010	
CoarseR50	3.98106e-010	-4.18721e-011	-3.58357e-011	-3.34167e-011	-3.28546e-011	-3.31503e-011	-3.39886e-011	-3.53794e-011	-3.72469e-011	-3.95501e-011	-4.22571e-011	-4.53063e-011	-4.874e-011	-5.25387e-011	-5.68187e-011	-6.17454e-011	-6.85305e-011	-7.49998e-011	-8.05397e-011	-8.53721e-011	-8.94929e-011	-9.29395e-011	-9.58258e-011	-9.82476e-011	-1.00253e-010	-1.01929e-010	
CoarseR60	3.85128e-010	4.25562e-010	-1.82802e-011	-1.47079e-011	-1.40665e-011	-1.40823e-011	-1.48784e-011	-1.62781e-011	-1.82023e-011	-2.05487e-011	-2.34838e-011	-2.68341e-011	-3.08589e-011	-3.5391e-011	-4.12597e-011	-4.91041e-011	-5.62609e-011	-6.25277e-011	-6.79762e-011	-7.26797e-011	-7.67612e-011	-8.02187e-011	-8.32599e-011	-8.57428e-011	-8.78455e-011	-8.95666e-011	
CoarseR70	4.167e-010	4.36736e-010	4.58407e-010	-1.88694e-012	9.25045e-013	1.06324e-012	4.3108e-013	-8.12108e-013	-2.63427e-012	-5.06816e-012	-8.22879e-012	-1.19297e-011	-1.65224e-011	-2.2528e-011	-3.09627e-011	-3.87878e-011	-4.56978e-011	-5.17971e-011	-5.71641e-011	-6.18011e-011	-6.57971e-011	-6.93847e-011	-7.23982e-011	-7.49199e-011	-7.70969e-011	-7.89386e-011	
CoarseR80	4.27307e-010	4.67951e-010	4.53665e-010	9.85859e-012	1.30016e-011	1.34463e-011	1.29808e-011	1.17958e-011	9.97381e-012	7.58315e-012	4.28036e-012	1.95685e-013	-5.29976e-012	-1.365e-011	-2.20736e-011	-2.95157e-011	-3.63568e-011	-4.23459e-011	-4.76648e-011	-5.23459e-011	-5.63386e-011	-5.98472e-011	-6.29304e-011	-6.55567e-011	-6.78097e-011	-6.97271e-011	
CoarseR90	4.36301e-010	4.54991e-010	4.6675e-010	5.27165e-010	2.28899e-011	2.33039e-011	2.32114e-011	2.2252e-011	2.04469e-011	1.79121e-011	1.45046e-011	1.00224e-011	2.87374e-012	-5.87354e-012	-1.41232e-011	-2.14512e-011	-2.81209e-011	-3.40145e-011	-3.92118e-011	-4.38633e-011	-4.79203e-011	-5.14816e-011	-5.45824e-011	-5.73473e-011	-5.96026e-011	-6.16699e-011	
CoarseR100	3.96955e-010	4.41309e-010	4.55865e-010	5.04005e-010	3.06138e-011	3.14274e-011	3.1506e-011	3.05896e-011	2.89387e-011	2.64744e-011	2.29144e-011	1.78437e-011	9.45624e-012	9.65227e-013	-6.97738e-012	-1.40872e-011	-2.06916e-011	-2.66028e-011	-3.18326e-011	-3.6511e-011	-4.0512e-011	-4.41847e-011	-4.72845e-011	-5.00567e-011	-5.24264e-011	-5.44566e-011	
CoarseR110	3.979e-010	4.38179e-010	5.05391e-010	4.92595e-010	3.67624e-011	3.78323e-011	3.80843e-011	3.743e-011	3.59623e-011	3.35735e-011	2.99073e-011	2.42164e-011	1.54436e-011	7.09913e-012	-6.06435e-013	-7.67218e-012	-1.41038e-011	-1.99466e-011	-2.52257e-011	-2.97405e-011	-3.40414e-011	-3.7705e-011	-4.08652e-011	-4.36959e-011	-4.60547e-011	-4.82348e-011	
CoarseR120	3.24639e-010	3.98331e-010	4.34644e-010	5.04897e-010	4.16696e-011	4.29708e-011	4.3468e-011	4.30743e-011	4.17454e-011	3.94817e-011	3.57305e-011	2.95579e-011	2.08383e-011	1.27352e-011	5.05713e-012	-1.8901e-012	-8.27223e-012	-1.40792e-011	-1.92816e-011	-2.39741e-011	-2.81228e-011	-3.18812e-011	-3.51703e-011	-3.80602e-011	-4.05828e-011	-4.27114e-011	
CoarseR130	3.39247e-010	4.04023e-010	4.38217e-010	5.1695e-010	4.53503e-011	4.69436e-011	4.7661e-011	4.75684e-011	4.65028e-011	4.43785e-011	4.07892e-011	3.43506e-011	2.58132e-011	1.78092e-011	1.02567e-011	3.39502e-012	-3.008e-012	-8.81757e-012	-1.39538e-011	-1.86836e-011	-2.28835e-011	-2.66881e-011	-3.00657e-011	-3.30864e-011	-3.56385e-011	-3.79101e-011	
CoarseR140	3.54229e-010	4.08862e-010	4.55157e-010	4.79144e-010	4.8203e-011	5.00119e-011	5.10316e-011	5.10323e-011	5.0145e-011	4.81788e-011	4.49519e-011	3.871e-011	3.02231e-011	2.22699e-011	1.47913e-011	7.93215e-012	1.5342e-012	-4.25052e-012	-9.51661e-012	-1.41671e-011	-1.8401e-011	-2.21876e-011	-2.56247e-011	-2.86707e-011	-3.13401e-011	-3.37336e-011	
CoarseR150	3.84144e-010	4.16352e-010	4.43107e-010	4.46752e-010	5.01943e-011	5.22687e-011	5.34401e-011	5.37124e-011	5.31117e-011	5.13953e-011	4.82778e-011	4.26458e-011	3.42277e-011	2.63504e-011	1.88796e-011	1.1997e-011	5.62544e-012	-2.56666e-013	-5.4682e-012	-1.0255e-011	-1.45448e-011	-1.84339e-011	-2.19029e-011	-2.4925e-011	-2.76645e-011	-2.99976e-011	
CoarseR160	4.08979e-010	3.76459e-010	4.33624e-010	4.71309e-010	5.15845e-011	5.37733e-011	5.52003e-011	5.56775e-011	5.52758e-011	5.37667e-011	5.10273e-011	4.59335e-011	3.77927e-011	2.99209e-011	2.2428e-011	1.55552e-011	9.11908e-012	3.23707e-012	-2.16302e-012	-6.94399e-012	-1.12953e-011	-1.52045e-011	-1.87262e-011	-2.18644e-011	-2.46105e-011	-2.70939e-011	
CoarseR170	4.01753e-010	4.13417e-010	4.33771e-010	4.43872e-010	5.23043e-011	5.47535e-011	5.63281e-011	5.7018e-011	5.6744e-011	5.55304e-011	5.31646e-011	4.87009e-011	4.08775e-011	3.2988e-011	2.55471e-011	1.85504e-011	1.20721e-011	6.21047e-012	8.52109e-013	-4.09068e-012	-8.4963e-012	-1.2513e-011	-1.61313e-011	-1.92936e-011	-2.21609e-011	-2.46089e-011	
CoarseR180	3.801e-010	4.34231e-010	4.65339e-010	4.68161e-010	5.26881e-011	5.52212e-011	5.69245e-011	5.7834e-011	5.78011e-011	5.67885e-011	5.46199e-011	5.07479e-011	4.34666e-011	3.56411e-011	2.81096e-011	2.11768e-011	1.46404e-011	8.61554e-012	3.1497e-012	-1.76045e-012	-6.1767e-012	-1.02783e-011	-1.39267e-011	-1.71909e-011	-2.00732e-011	-2.25848e-011	
CoarseR190	4.18402e-010	4.58901e-010	4.5673e-010	4.762e-010	5.2585e-011	5.52906e-011	5.71957e-011	5.82128e-011	5.83877e-011	5.75923e-011	5.57161e-011	5.22448e-011	4.56956e-011	3.78791e-011	3.03602e-011	2.32654e-011	1.66975e-011	1.06368e-011	5.09583e-012	7.90091e-014	-4.42467e-012	-8.48919e-012	-1.2256e-011	-1.56142e-011	-1.84798e-011	-2.10975e-011	
CoarseR200	4.35945e-010	4.22363e-010	4.79511e-010	4.71467e-010	5.22871e-011	5.50293e-011	5.70685e-011	5.82515e-011	5.85745e-011	5.79949e-011	5.62431e-011	5.33305e-011	4.75742e-011	3.9665e-011	3.1998e-011	2.5038e-011	1.83088e-011	1.21584e-011	6.60944e-012	1.51539e-012	-3.0467e-012	-7.22334e-012	-1.10014e-011	-1.43069e-011	-1.72907e-011	-1.99227e-011	
CoarseR210	4.32786e-010	4.43244e-010	4.3205e-010	4.54768e-010	5.16344e-011	5.45494e-011	5.67179e-011	5.79954e-011	5.84268e-011	5.79517e-011	5.64964e-011	5.37322e-011	4.87848e-011	4.10842e-011	3.34366e-011	2.62806e-011	1.95998e-011	1.34386e-011	7.82126e-012	2.61816e-012	-1.99504e-012	-6.16399e-012	-1.00552e-011	-1.34297e-011	-1.64527e-011	-1.91709e-011	
CoarseR220	4.29001e-010	4.39432e-010	4.77551e-010	5.03809e-010	5.09509e-011	5.38649e-011	5.60849e-011	5.74457e-011	5.80561e-011	5.7634e-011	5.63707e-011	5.39041e-011	4.95585e-011	4.21791e-011	3.44835e-011	2.729e-011	2.05881e-011	1.43618e-011	8.63198e-012	3.38184e-012	-1.34464e-012	-5.58187e-012	-9.43668e-012	-1.28596e-011	-1.59334e-011	-1.86098e-011	
CoarseR230	4.19765e-010	4.90024e-010	4.31517e-010	4.87106e-010	5.00695e-011	5.31735e-011	5.54065e-011	5.68307e-011	5.74715e-011	5.7185e-011	5.61014e-011	5.37969e-011	4.98927e-011	4.30545e-011	3.52602e-011	2.8028e-011	2.12282e-011	1.48436e-011	9.10419e-012	3.86153e-012	-9.20383e-013	-5.25248e-012	-9.09159e-012	-1.25854e-011	-1.56748e-011	-1.83771e-011	
CoarseR240	4.47151e-010	4.50704e-010	4.5511e-010	4.77093e-010	4.91439e-011	5.22371e-011	5.45555e-011	5.60365e-011	5.67229e-011	5.65861e-011	5.55808e-011	5.34387e-011	4.98573e-011	4.35487e-011	3.57108e-011	2.84186e-011	2.15798e-011	1.52082e-011	9.37155e-012	4.07556e-012	-7.00006e-013	-5.08408e-012	-9.02018e-012	-1.25869e-011	-1.56406e-011	-1.8431e-011	
CoarseR250	4.5672e-010	4.38933e-010	4.46412e-010	4.47169e-010	4.8212e-011	5.1363e-011	5.36632e-011	5.52103e-011	5.59841e-011	5.587e-011	5.49552e-011	5.29725e-011	4.95674e-011	4.38093e-011	3.59821e-011	2.86436e-011	2.1778e-011	1.5315e-011	9.52571e-012	4.11097e-012	-6.96246e-013	-5.10441e-012	-9.1168e-012	-1.26601e-011	-1.57821e-011	-1.86078e-011	
MinCout:	7.90091e-014	CoarseR:	190	CoarseC:	190

	CoarseC30	CoarseC31	CoarseC32	CoarseC33	CoarseC34	CoarseC35	CoarseC36	CoarseC37	CoarseC38	CoarseC39	CoarseC40	CoarseC41	CoarseC42	CoarseC43	CoarseC44	CoarseC45	CoarseC46	CoarseC47	CoarseC48	CoarseC49	CoarseC50	
CoarseR60	-1.44773e-011	-1.44142e-011	-1.42755e-011	-1.41596e-011	-1.40554e-011	-1.3946e-011	-1.39189e-011	-1.38959e-011	-1.39029e-011	-1.38344e-011	-1.37778e-011	-1.37775e-011	-1.37471e-011	-1.37175e-011	-1.36983e-011	-1.37273e-011	-1.37258e-011	-1.36988e-011	-1.3726e-011	-1.37847e-011	-1.38073e-011	
CoarseR61	-1.28681e-011	-1.26973e-011	-1.26655e-011	-1.25784e-011	-1.24066e-011	-1.23137e-011	-1.22396e-011	-1.21914e-011	-1.21934e-011	-1.22203e-011	-1.2153e-011	-1.21341e-011	-1.21095e-011	-1.21809e-011	-1.20286e-011	-1.20212e-011	-1.20575e-011	-1.20855e-011	-1.20427e-011	-1.20989e-011	-1.21672e-011	
CoarseR62	-1.13116e-011	-1.11766e-011	-1.09865e-011	-1.0864e-011	-1.07807e-011	-1.07347e-011	-1.06034e-011	-1.05503e-011	-1.05268e-011	-1.05412e-011	-1.0487e-011	-1.04646e-011	-1.04527e-011	-1.04154e-011	-1.04248e-011	-1.04222e-011	-1.03983e-011	-1.04639e-011	-1.04175e-011	-1.04456e-011	-1.04775e-011	
CoarseR63	-9.6939e-012	-9.62733e-012	-9.46325e-012	-9.37694e-012	-9.2477e-012	-9.20776e-012	-9.07174e-012	-9.02525e-012	-8.97368e-012	-8.91959e-012	-8.94462e-012	-8.93604e-012	-8.86261e-012	-8.87956e-012	-8.81122e-012	-8.86341e-012	-8.83609e-012	-8.83276e-012	-8.88292e-012	-8.86343e-012	-8.94221e-012	
CoarseR64	-8.23435e-012	-8.15228e-012	-8.04562e-012	-7.8216e-012	-7.75901e-012	-7.67246e-012	-7.63453e-012	-7.50985e-012	-7.45536e-012	-7.40641e-012	-7.35285e-012	-7.33999e-012	-7.28888e-012	-7.31164e-012	-7.27057e-012	-7.26337e-012	-7.28225e-012	-7.31576e-012	-7.29687e-012	-7.32413e-012	-7.36504e-012	
CoarseR65	-6.72716e-012	-6.62894e-012	-6.51787e-012	-6.43356e-012	-6.30334e-012	-6.18077e-012	-6.09651e-012	-6.0696e-012	-5.90522e-012	-5.8937e-012	-5.8046e-012	-5.79591e-012	-5.73193e-012	-5.75868e-012	-5.79129e-012	-5.72865e-012	-5.78588e-012	-5.80867e-012	-5.81845e-012	-5.8099e-012	-5.8554e-012	
CoarseR66	-5.33781e-012	-5.18235e-012	-5.09592e-012	-4.99723e-012	-4.85277e-012	-4.7134e-012	-4.6858e-012	-4.58086e-012	-4.53616e-012	-4.42397e-012	-4.38154e-012	-4.35914e-012	-4.28669e-012	-4.25838e-012	-4.28608e-012	-4.31082e-012	-4.29891e-012	-4.35891e-012	-4.39139e-012	-4.34456e-012	-4.39552e-012	
CoarseR67	-3.87868e-012	-3.76948e-012	-3.6477e-012	-3.53183e-012	-3.46555e-012	-3.32259e-012	-3.25831e-012	-3.11675e-012	-3.04533e-012	-2.96048e-012	-2.8911e-012	-2.88327e-012	-2.80624e-012	-2.79169e-012	-2.732e-012	-2.7531e-012	-2.79663e-012	-2.78707e-012	-2.84752e-012	-2.85605e-012	-2.87019e-012	
CoarseR68	-2.50593e-012	-2.37142e-012	-2.20256e-012	-2.11391e-012	-2.07255e-012	-1.8926e-012	-1.8335e-012	-1.71925e-012	-1.63037e-012	-1.60185e-012	-1.48634e-012	-1.45066e-012	-1.36951e-012	-1.41043e-012	-1.31358e-012	-1.34809e-012	-1.38733e-012	-1.35497e-012	-1.40549e-012	-1.46057e-012	-1.42738e-012	
CoarseR69	-1.17946e-012	-1.08189e-012	-9.28703e-013	-7.61069e-013	-6.83729e-013	-5.81293e-013	-4.95128e-013	-3.44427e-013	-2.73016e-013	-2.27186e-013	-1.67871e-013	-5.33404e-014	-2.80262e-014	-1.30774e-014	6.99936e-014	7.27851e-014	4.70187e-014	2.37572e-014	-1.33801e-014	-4.82885e-014	-1.21123e-013	
CoarseR70	2.04936e-013	2.7778e-013	4.04368e-013	6.39302e-013	6.70216e-013	7.57745e-013	8.59063e-013	1.03664e-012	1.05199e-012	1.15415e-012	1.25991e-012	1.27652e-012	1.3802e-012	1.32998e-012	1.3764e-012	1.42554e-012	1.46979e-012	1.44222e-012	1.40059e-012	1.33704e-012	1.31004e-012	
CoarseR71	1.49979e-012	1.59934e-012	1.67984e-012	1.79328e-012	1.98786e-012	2.08032e-012	2.16664e-012	2.28758e-012	2.34037e-012	2.43762e-012	2.53907e-012	2.56093e-012	2.65051e-012	2.68894e-012	2.71226e-012	2.72484e-012	2.75489e-012	2.71398e-012	2.67718e-012	2.69367e-012	2.67162e-012	
CoarseR72	2.75955e-012	2.8755e-012	3.01276e-012	3.1219e-012	3.23743e-012	3.39952e-012	3.42857e-012	3.56552e-012	3.69613e-012	3.7894e-012	3.87568e-012	3.85113e-012	3.93597e-012	4.01235e-012	4.04004e-012	4.03012e-012	4.05573e-012	4.06153e-012	4.06168e-012	4.02285e-012	4.00549e-012	
CoarseR73	4.01509e-012	4.17717e-012	4.27884e-012	4.44668e-012	4.47187e-012	4.67153e-012	4.75855e-012	4.78653e-012	4.91281e-012	5.0524e-012	5.13441e-012	5.17931e-012	5.23693e-012	5.28961e-012	5.27131e-012	5.34042e-012	5.38034e-012	5.37242e-012	5.35925e-012	5.37556e-012	5.33711e-012	
CoarseR74	5.23044e-012	5.34673e-012	5.48581e-012	5.60614e-012	5.75419e-012	5.82146e-012	5.98838e-012	6.01157e-012	6.10137e-012	6.25818e-012	6.33575e-012	6.34435e-012	6.46175e-012	6.44614e-012	6.50783e-012	6.53978e-012	6.54751e-012	6.58737e-012	6.56935e-012	6.57393e-012	6.57175e-012	
CoarseR75	6.45379e-012	6.59663e-012	6.69918e-012	6.86748e-012	6.96707e-012	7.06219e-012	7.18229e-012	7.29551e-012	7.37025e-012	7.50067e-012	7.60541e-012	7.65059e-012	7.68025e-012	7.70138e-012	7.74923e-012	7.7682e-012	7.8319e-012	7.86705e-012	7.84463e-012	7.84516e-012	7.79776e-012	
CoarseR76	7.63733e-012	7.73413e-012	7.86325e-012	7.98285e-012	8.12133e-012	8.21183e-012	8.28605e-012	8.44554e-012	8.54928e-012	8.5913e-012	8.73317e-012	8.78409e-012	8.90216e-012	8.90024e-012	8.95366e-012	8.95865e-012	9.02781e-012	9.04067e-012	9.02364e-012	9.06115e-012	9.01914e-012	
CoarseR77	8.78467e-012	8.91775e-012	9.05298e-012	9.15773e-012	9.29141e-012	9.37575e-012	9.44546e-012	9.53896e-012	9.69049e-012	9.80206e-012	9.95878e-012	9.99645e-012	1.00681e-011	1.00808e-011	1.00781e-011	1.01208e-011	1.01674e-011	1.01946e-011	1.02063e-011	1.02403e-011	1.02268e-011	
CoarseR78	9.86996e-012	1.00523e-011	1.02253e-011	1.03361e-011	1.04225e-011	1.05445e-011	1.05989e-011	1.07317e-011	1.08562e-011	1.09964e-011	1.10545e-011	1.11386e-011	1.12375e-011	1.12461e-011	1.12914e-011	1.1298e-011	1.13386e-011	1.13952e-011	1.14361e-011	1.14341e-011	1.14583e-011	
CoarseR79	1.09284e-011	1.11062e-011	1.12539e-011	1.14007e-011	1.15252e-011	1.16221e-011	1.16738e-011	1.1852e-011	1.19532e-011	1.20991e-011	1.21949e-011	1.22748e-011	1.23272e-011	1.24176e-011	1.24572e-011	1.24177e-011	1.24644e-011	1.25073e-011	1.25619e-011	1.25807e-011	1.26012e-011	
CoarseR80	1.20341e-011	1.22275e-011	1.2317e-011	1.2492e-011	1.26119e-011	1.27266e-011	1.27832e-011	1.29272e-011	1.30647e-011	1.3101e-011	1.32449e-011	1.33545e-011	1.34215e-011	1.35063e-011	1.35436e-011	1.35842e-011	1.36185e-011	1.36251e-011	1.36664e-011	1.36793e-011	1.36639e-011	
MinCout:	-1.30774e-014	CoarseR:	69	CoarseC:	43

	FineC0	FineC10	FineC20	FineC30	FineC40	FineC50	FineC60	FineC70	FineC80	FineC90	FineC100	FineC110	FineC120	FineC130	FineC140	FineC150	FineC160	FineC170	FineC180	FineC190	FineC200	FineC210	FineC220	FineC230	FineC240	FineC250	
FineR0	4.77947e-010	-2.76434e-011	-2.31637e-011	-2.02805e-011	-1.83433e-011	-1.68091e-011	-1.56321e-011	-1.46374e-011	-1.38054e-011	-1.31202e-011	-1.25794e-011	-1.21046e-011	-1.15855e-011	-1.12676e-011	-1.09717e-011	-1.06437e-011	-1.03993e-011	-1.01034e-011	-9.94285e-012	-9.78231e-012	-9.6124e-012	-9.45056e-012	-9.28884e-012	-9.16906e-012	-9.04929e-012	-9.01383e-012	
FineR10	4.61447e-010	4.6796e-010	-1.54312e-011	-1.27173e-011	-1.07798e-011	-9.34615e-012	-8.16099e-012	-7.25679e-012	-6.47379e-012	-5.78165e-012	-5.22622e-012	-4.83625e-012	-4.43626e-012	-4.05949e-012	-3.74249e-012	-3.5237e-012	-3.27203e-012	-3.07111e-012	-2.89432e-012	-2.72657e-012	-2.58291e-012	-2.46606e-012	-2.38239e-012	-2.28969e-012	-2.21463e-012	-2.13068e-012	
FineR20	4.55347e-010	5.00362e-010	-1.33713e-011	-1.06381e-011	-8.66897e-012	-7.21028e-012	-6.07929e-012	-5.17612e-012	-4.43382e-012	-3.74106e-012	-3.20282e-012	-2.81104e-012	-2.39978e-012	-2.07174e-012	-1.78521e-012	-1.52209e-012	-1.31018e-012	-1.14017e-012	-9.70244e-013	-8.00142e-013	-6.30087e-013	-5.01981e-013	-4.58474e-013	-3.39388e-013	-2.86777e-013	-1.58658e-013	
FineR30	4.76264e-010	4.97034e-010	-1.25165e-011	-9.78992e-012	-7.81494e-012	-6.30715e-012	-5.18865e-012	-4.27571e-012	-3.53366e-012	-2.84079e-012	-2.34388e-012	-1.85851e-012	-1.53936e-012	-1.21971e-012	-9.74186e-013	-6.86483e-013	-4.64175e-013	-2.93122e-013	-1.12983e-013	4.90472e-014	2.20118e-013	3.07013e-013	4.36067e-013	5.228e-013	5.76219e-013	6.63234e-013	
FineR40	4.98902e-010	-1.64015e-011	-1.21216e-011	-9.38856e-012	-7.41675e-012	-5.91097e-012	-4.74162e-012	-3.80846e-012	-3.05603e-012	-2.45611e-012	-1.90739e-012	-1.4216e-012	-1.10196e-012	-7.72483e-013	-4.42623e-013	-2.70954e-013	-2.46371e-014	1.89045e-013	3.69843e-013	5.41583e-013	6.71176e-013	8.00695e-013	8.88084e-013	9.33157e-013	9.78273e-013	1.09885e-012	
FineR50	4.83396e-010	5.02741e-010	-1.18943e-011	-9.13588e-012	-7.16487e-012	-5.64975e-012	-4.48116e-012	-3.53829e-012	-2.79605e-012	-2.14467e-012	-1.64741e-012	-1.21264e-012	-8.50933e-013	-5.21074e-013	-2.42097e-013	2.31776e-014	2.4644e-013	4.09209e-013	5.72062e-013	7.53188e-013	8.8312e-013	1.0643e-012	1.16099e-012	1.19747e-012	1.28522e-012	1.36384e-012	
FineR60	5.05925e-010	5.05492e-010	-1.17349e-011	-9.01802e-012	-7.04824e-012	-5.52282e-012	-4.36565e-012	-3.37131e-012	-2.67086e-012	-2.02928e-012	-1.49024e-012	-1.00381e-012	-6.83624e-013	-3.5355e-013	-6.50235e-014	1.49214e-013	4.05402e-013	5.77629e-013	7.49935e-013	8.80077e-013	1.01023e-012	1.18246e-012	1.27046e-012	1.35836e-012	1.41324e-012	1.49205e-012	
FineR70	4.88481e-010	-1.60588e-011	-1.16458e-011	-8.94209e-012	-6.9625e-012	-5.44898e-012	-4.28135e-012	-3.2978e-012	-2.50427e-012	-1.95569e-012	-1.4067e-012	-9.2995e-013	-5.16468e-013	-2.69826e-013	6.06737e-014	3.07673e-013	4.8948e-013	6.52657e-013	8.25042e-013	9.55494e-013	1.09488e-012	1.26724e-012	1.35539e-012	1.44345e-012	1.53138e-012	1.57719e-012	
FineR80	4.75628e-010	4.9244e-010	-1.16638e-011	-8.89768e-012	-6.92987e-012	-5.38647e-012	-4.21856e-012	-3.25546e-012	-2.48228e-012	-1.87224e-012	-1.33293e-012	-8.97754e-013	-4.93792e-013	-2.37442e-013	5.1277e-014	3.49602e-013	5.6413e-013	7.36754e-013	9.09256e-013	1.0397e-012	1.21213e-012	1.30068e-012	1.38876e-012	1.51913e-012	1.60743e-012	1.61115e-012	
FineR90	4.87189e-010	4.83797e-010	-1.15788e-011	-8.86538e-012	-6.89719e-012	-5.39524e-012	-4.21714e-012	-3.27478e-012	-2.48147e-012	-1.83015e-012	-1.29114e-012	-8.55987e-013	-4.5203e-013	-2.05137e-013	8.36986e-014	3.82111e-013	5.54792e-013	7.69458e-013	9.00032e-013	1.10547e-012	1.24529e-012	1.37577e-012	1.46416e-012	1.56158e-012	1.64078e-012	1.6446e-012	
FineR100	4.98869e-010	5.09731e-010	-1.16389e-011	-8.88506e-012	-6.86513e-012	-5.39354e-012	-4.18522e-012	-3.27399e-012	-2.49117e-012	-1.83986e-012	-1.35215e-012	-8.23854e-013	-4.61577e-013	-1.7283e-013	1.2552e-013	3.40191e-013	5.8742e-013	7.60109e-013	9.32742e-013	1.06347e-012	1.24512e-012	1.32457e-012	1.422e-012	1.55247e-012	1.6317e-012	1.67805e-012	
FineR110	4.84654e-010	5.17305e-010	-1.16341e-011	-8.88244e-012	-6.92651e-012	-5.39221e-012	-4.19456e-012	-3.24259e-012	-2.45931e-012	-1.85921e-012	-1.35182e-012	-8.75072e-013	-4.71094e-013	-1.40557e-013	1.06617e-013	4.05129e-013	5.78014e-013	8.02039e-013	9.6555e-013	1.09623e-012	1.2268e-012	1.31536e-012	1.44597e-012	1.54335e-012	1.63181e-012	1.66901e-012	
FineR120	4.72159e-010	-1.60794e-011	-1.16955e-011	-8.94298e-012	-6.96489e-012	-5.45299e-012	-4.25588e-012	-3.25205e-012	-2.51055e-012	-1.85897e-012	-1.37127e-012	-9.26286e-013	-4.80647e-013	-1.50059e-013	5.52973e-014	3.53785e-013	5.26675e-013	7.92633e-013	9.5616e-013	1.08686e-012	1.21754e-012	1.30604e-012	1.43666e-012	1.48307e-012	1.58053e-012	1.70197e-012	
FineR130	5.23824e-010	4.8209e-010	-1.17454e-011	-8.94123e-012	-6.97512e-012	-5.46313e-012	-4.25519e-012	-3.30296e-012	-2.5099e-012	-1.87859e-012	-1.37111e-012	-9.3595e-013	-4.90248e-013	-1.59594e-013	5.5276e-014	3.44368e-013	5.68527e-013	7.32052e-013	9.14119e-013	1.08677e-012	1.20835e-012	1.30595e-012	1.43657e-012	1.47378e-012	1.56229e-012	1.65051e-012	
FineR140	4.80636e-010	-1.60851e-011	-1.17548e-011	-8.99145e-012	-6.98463e-012	-5.50268e-012	-4.30598e-012	-3.31256e-012	-2.5609e-012	-1.92967e-012	-1.42226e-012	-9.45499e-013	-5.41492e-013	-1.69108e-013	4.5798e-014	2.9304e-013	5.17184e-013	6.90028e-013	9.04723e-013	1.0774e-012	1.15693e-012	1.28756e-012	1.37611e-012	1.47371e-012	1.56199e-012	1.65044e-012	
FineR150	4.83741e-010	-1.61486e-011	-1.18058e-011	-9.04166e-012	-7.03508e-012	-5.52333e-012	-4.31557e-012	-3.35336e-012	-2.58074e-012	-1.92943e-012	-1.43181e-012	-9.96687e-013	-5.92727e-013	-2.20385e-013	3.63151e-014	2.51136e-013	4.98437e-013	7.2254e-013	8.53313e-013	1.03529e-012	1.14757e-012	1.23614e-012	1.33372e-012	1.4554e-012	1.51078e-012	1.59899e-012	
FineR160	5.02787e-010	-1.61981e-011	-1.18557e-011	-9.05199e-012	-7.08625e-012	-5.48167e-012	-4.31509e-012	-3.37344e-012	-2.63174e-012	-1.9805e-012	-1.48312e-012	-9.96556e-013	-6.34376e-013	-2.71653e-013	2.68558e-014	1.90431e-013	4.56474e-013	6.71183e-013	8.02053e-013	9.74754e-013	1.14742e-012	1.19398e-012	1.3246e-012	1.41305e-012	1.50135e-012	1.54779e-012	
FineR170	5.17349e-010	-1.62754e-011	-1.18663e-011	-9.06229e-012	-7.09633e-012	-5.57337e-012	-4.36635e-012	-3.41435e-012	-2.64169e-012	-2.00017e-012	-1.49266e-012	-1.05752e-012	-6.43864e-013	-2.7161e-013	-2.44333e-014	1.90412e-013	4.05146e-013	6.19905e-013	8.01947e-013	9.74622e-013	1.10529e-012	1.18472e-012	1.32441e-012	1.45498e-012	1.45013e-012	1.53835e-012	
FineR180	4.93313e-010	-1.63005e-011	-1.19186e-011	-9.11425e-012	-7.10713e-012	-5.58388e-012	-4.37615e-012	-3.43456e-012	-2.68277e-012	-2.0414e-012	-1.53425e-012	-1.05737e-012	-6.53438e-013	-2.81121e-013	-3.3895e-014	1.90393e-013	3.95768e-013	5.77906e-013	7.50689e-013	9.23326e-013	1.05398e-012	1.18456e-012	1.27307e-012	1.3524e-012	1.44991e-012	1.49612e-012	
FineR190	4.63525e-010	-1.6299e-011	-1.19567e-011	-9.15324e-012	-7.18768e-012	-5.58328e-012	-4.42712e-012	-3.51664e-012	-2.72379e-012	-2.08262e-012	-1.54378e-012	-1.09885e-012	-6.95074e-013	-3.64601e-013	-6.62007e-014	1.39099e-013	3.95721e-013	5.59216e-013	7.5049e-013	8.71955e-013	1.04456e-012	1.13316e-012	1.22167e-012	1.35201e-012	1.44049e-012	1.47771e-012	
FineR200	4.78236e-010	-1.63644e-011	-1.19556e-011	-9.21638e-012	-7.18694e-012	-5.64536e-012	-4.47838e-012	-3.52674e-012	-2.7437e-012	-2.09245e-012	-1.54358e-012	-1.15016e-012	-7.46331e-013	-3.74115e-013	-7.5658e-014	1.2971e-013	3.95685e-013	5.59146e-013	6.99215e-013	8.71837e-013	1.00245e-012	1.09094e-012	1.17033e-012	1.30989e-012	1.38913e-012	1.44453e-012	
FineR210	4.64221e-010	-1.64028e-011	-1.20208e-011	-9.20429e-012	-7.23866e-012	-5.6858e-012	-4.47859e-012	-3.56762e-012	-2.78475e-012	-2.11211e-012	-1.59486e-012	-1.15976e-012	-7.87903e-013	-3.74058e-013	-8.51152e-014	7.84283e-014	3.4442e-013	5.0788e-013	6.89902e-013	8.20552e-013	9.51156e-013	1.08169e-012	1.17017e-012	1.30067e-012	1.38893e-012	1.43533e-012	
FineR220	4.67294e-010	5.10713e-010	-1.20196e-011	-9.21548e-012	-7.24946e-012	-5.6858e-012	-4.52954e-012	-3.56721e-012	-2.82614e-012	-2.14349e-012	-1.64614e-012	-1.15961e-012	-7.97477e-013	-4.25304e-013	-1.36362e-013	3.65926e-014	2.93165e-013	5.0788e-013	6.38627e-013	8.20552e-013	9.41831e-013	1.03038e-012	1.11884e-012	1.24933e-012	1.34679e-012	1.38395e-012	
FineR230	4.73898e-010	-1.65071e-011	-1.20591e-011	-9.29606e-012	-7.28962e-012	-5.73737e-012	-4.5808e-012	-3.62911e-012	-2.84604e-012	-2.19479e-012	-1.64593e-012	-1.21086e-012	-8.48728e-013	-4.7655e-013	-2.19944e-013	3.65926e-014	2.93132e-013	4.65897e-013	6.38543e-013	7.69268e-013	8.99859e-013	1.03024e-012	1.11868e-012	1.24915e-012	1.33758e-012	1.38375e-012	
FineR240	4.92655e-010	-1.64931e-011	-1.21114e-011	-9.30725e-012	-7.34133e-012	-5.74787e-012	-4.53982e-012	-3.61859e-012	-2.88708e-012	-2.20462e-012	-1.6972e-012	-1.25231e-012	-8.4861e-013	-4.76479e-013	-1.7812e-013	-1.46547e-014	2.41884e-013	4.65839e-013	6.38543e-013	7.69164e-013	9.41702e-013	1.03024e-012	1.11868e-012	1.19781e-012	1.29524e-012	1.38375e-012	
FineR250	4.79314e-010	-1.65459e-011	-1.21114e-011	-9.31844e-012	-7.34133e-012	-5.74725e-012	-4.57021e-012	-3.66998e-012	-2.88708e-012	-2.24581e-012	-1.6972e-012	-1.25231e-012	-8.4861e-013	-4.76479e-013	-2.29359e-013	2.72106e-014	2.41884e-013	4.14637e-013	5.87276e-013	7.27173e-013	8.99677e-013	9.78933e-013	1.07644e-012	1.19781e-012	1.28604e-012	1.33238e-012	
MinCout:	-1.46547e-014	FineR:	240	FineC:	150

	FineC130	FineC131	FineC132	FineC133	FineC134	FineC135	FineC136	FineC137	FineC138	FineC139	FineC140	FineC141	FineC142	FineC143	FineC144	FineC145	FineC146	FineC147	FineC148	FineC149	FineC150	
FineR70	-2.28007e-013	-1.86209e-013	-1.76766e-013	-1.86232e-013	-1.34958e-013	-1.34976e-013	-4.18537e-014	-4.18607e-014	-3.24513e-014	9.40913e-015	6.06737e-014	6.06665e-014	1.11944e-013	1.11935e-013	1.53826e-013	2.05092e-013	2.0511e-013	2.14468e-013	2.56397e-013	2.65746e-013	2.65765e-013	
FineR71	-2.28007e-013	-2.28008e-013	-1.44378e-013	-1.34937e-013	-1.34956e-013	-8.36892e-014	-8.3703e-014	-4.18607e-014	9.41161e-015	1.88138e-014	9.40442e-015	1.02543e-013	1.02552e-013	1.11935e-013	1.53834e-013	1.63207e-013	2.47014e-013	2.56374e-013	2.56397e-013	3.07661e-013	3.07688e-013	
FineR72	-1.44365e-013	-1.95662e-013	-1.86233e-013	-1.44394e-013	-9.31156e-014	-4.18493e-014	-4.18515e-014	-4.18584e-014	9.41631e-015	5.1279e-014	6.06809e-014	6.06829e-014	1.11954e-013	1.53841e-013	1.63219e-013	1.95747e-013	2.0512e-013	2.56387e-013	2.56409e-013	3.07661e-013	3.4961e-013	
FineR73	-2.37464e-013	-1.86187e-013	-1.86209e-013	-1.34935e-013	-9.31156e-014	-9.31154e-014	5.12656e-014	0	0	9.41161e-015	9.31485e-014	9.31599e-014	1.02557e-013	1.53828e-013	1.53841e-013	2.05102e-013	2.56365e-013	2.56387e-013	2.65743e-013	3.07676e-013	3.07703e-013	
FineR74	-1.95646e-013	-1.86187e-013	-1.44381e-013	-1.44378e-013	-1.44394e-013	-1.34956e-013	-4.18493e-014	-4.18515e-014	9.42101e-015	5.12745e-014	5.1279e-014	6.06809e-014	1.44438e-013	1.95711e-013	1.95732e-013	2.05112e-013	2.88923e-013	2.56399e-013	3.07649e-013	3.07676e-013	3.58938e-013	
FineR75	-1.95652e-013	-1.53843e-013	-1.44383e-013	-9.31044e-014	-9.31158e-014	-9.31272e-014	0	0	0	6.06861e-014	9.31488e-014	1.02553e-013	1.11948e-013	1.53835e-013	1.95732e-013	2.05112e-013	3.40151e-013	2.56399e-013	3.07664e-013	3.49589e-013	3.58938e-013	
FineR76	-1.95652e-013	-1.53843e-013	-1.44383e-013	-1.44381e-013	-6.0718e-014	-5.12755e-014	-5.12799e-014	0	4.18584e-014	5.1277e-014	5.12814e-014	1.44425e-013	1.44441e-013	1.95717e-013	1.95737e-013	2.47004e-013	2.56377e-013	2.98301e-013	2.9833e-013	3.07691e-013	3.58955e-013	
FineR77	-1.95652e-013	-1.4437e-013	-1.02557e-013	-9.31047e-014	-9.31161e-014	-9.31158e-014	-9.43289e-015	0	0	9.31377e-014	1.02549e-013	9.31488e-014	1.11957e-013	1.95717e-013	1.95737e-013	2.05122e-013	3.40159e-013	2.98301e-013	3.40195e-013	3.49602e-013	3.49589e-013	
FineR78	-1.95657e-013	-1.5385e-013	-1.44386e-013	-1.02552e-013	-6.07251e-014	-5.12779e-014	-9.43289e-015	4.18493e-014	4.18562e-014	9.31377e-014	9.31491e-014	1.44428e-013	1.53829e-013	1.95717e-013	2.46987e-013	2.47012e-013	2.5639e-013	2.98311e-013	2.98301e-013	3.40239e-013	3.49602e-013	
FineR79	-1.53844e-013	-1.44373e-013	-1.12018e-013	-1.02557e-013	-1.02566e-013	-9.44005e-015	-9.43759e-015	4.18493e-014	4.18562e-014	9.31379e-014	9.31493e-014	1.44428e-013	1.95702e-013	1.95722e-013	1.95717e-013	1.95737e-013	2.88897e-013	2.88929e-013	2.98301e-013	3.49615e-013	3.49602e-013	
FineR80	-1.53823e-013	-1.53836e-013	-1.4437e-013	-1.02557e-013	-5.12759e-014	-9.44005e-015	-9.43535e-015	0	5.12775e-014	9.31379e-014	9.31377e-014	1.02549e-013	1.44428e-013	1.95696e-013	2.37598e-013	1.95737e-013	2.88897e-013	2.88934e-013	2.98311e-013	3.40239e-013	3.91513e-013	
FineR81	-1.95636e-013	-1.53836e-013	-1.02553e-013	-1.02562e-013	-5.12759e-014	-5.12804e-014	0	4.18471e-014	4.18493e-014	4.18562e-014	9.31377e-014	1.4443e-013	1.44428e-013	1.8632e-013	2.37598e-013	2.4702e-013	2.88902e-013	2.88934e-013	3.40211e-013	3.40247e-013	3.40283e-013	
FineR82	-1.63324e-013	-1.12021e-013	-1.02553e-013	-1.02562e-013	-9.31049e-014	-9.44475e-015	-9.44005e-015	4.18471e-014	8.36986e-014	8.37124e-014	9.31379e-014	1.44412e-013	1.86298e-013	1.8632e-013	1.95722e-013	2.88871e-013	2.88902e-013	2.88934e-013	3.40211e-013	3.49581e-013	3.49615e-013	
FineR83	-1.5383e-013	-1.53844e-013	-1.53857e-013	-6.07374e-014	-6.07303e-014	-9.44475e-015	-9.44228e-015	3.24072e-014	9.31268e-014	9.31381e-014	1.34996e-013	1.35015e-013	1.86298e-013	2.28197e-013	2.37601e-013	2.37628e-013	2.4702e-013	2.8894e-013	2.98322e-013	3.82154e-013	3.91523e-013	
FineR84	-1.53838e-013	-1.12031e-013	-1.02558e-013	-1.12028e-013	-6.07303e-014	-1.88989e-014	-9.44475e-015	3.24072e-014	8.36941e-014	1.34978e-013	1.34996e-013	1.44415e-013	1.86298e-013	1.95707e-013	1.8632e-013	2.37598e-013	2.88908e-013	2.88902e-013	3.30831e-013	3.3087e-013	3.82154e-013	
FineR85	-1.53838e-013	-1.53851e-013	-7.02177e-014	-1.02567e-013	-6.07374e-014	-1.88989e-014	-9.44475e-015	3.24003e-014	8.36941e-014	8.3708e-014	1.34994e-013	1.86275e-013	1.86298e-013	1.86321e-013	2.37604e-013	2.47003e-013	2.88908e-013	3.30793e-013	3.30831e-013	3.3087e-013	3.91534e-013	
FineR86	-1.53838e-013	-1.21514e-013	-7.02063e-014	-7.02059e-014	-6.07374e-014	2.29345e-014	3.23909e-014	3.24003e-014	8.36941e-014	1.25562e-013	1.34994e-013	1.34996e-013	2.28166e-013	2.28195e-013	2.28197e-013	2.7948e-013	2.79514e-013	3.30793e-013	3.30835e-013	3.82111e-013	3.91483e-013	
FineR87	-1.63325e-013	-1.12024e-013	-1.12031e-013	-7.01945e-014	-1.89132e-014	-1.89083e-014	2.29462e-014	3.24003e-014	8.36896e-014	1.25548e-013	1.25569e-013	1.34996e-013	1.35015e-013	2.28167e-013	2.28197e-013	2.7948e-013	2.88876e-013	2.88908e-013	3.40183e-013	3.82111e-013	3.91483e-013	
FineR88	-1.63325e-013	-1.12024e-013	-1.12031e-013	-6.07426e-014	-2.83698e-014	-1.89038e-014	-1.88989e-014	7.42357e-014	8.36802e-014	8.36941e-014	1.25569e-013	1.76855e-013	1.7688e-013	1.86298e-013	2.28197e-013	2.7948e-013	2.79514e-013	3.30796e-013	3.30793e-013	3.40219e-013	3.82159e-013	
FineR89	-1.63325e-013	-1.12034e-013	-7.02181e-014	-6.07426e-014	-7.02059e-014	-1.89038e-014	-1.88989e-014	3.23909e-014	8.36802e-014	8.36941e-014	9.31268e-014	1.76855e-013	1.86275e-013	1.86298e-013	2.37577e-013	2.46978e-013	2.88876e-013	3.30796e-013	3.30835e-013	3.40219e-013	3.91493e-013	
FineR90	-1.21524e-013	-1.12034e-013	-1.21514e-013	-6.07426e-014	-7.02059e-014	2.29227e-014	2.29345e-014	3.23909e-014	7.42429e-014	1.1612e-013	1.25562e-013	1.34994e-013	2.18745e-013	2.28166e-013	2.28167e-013	2.79481e-013	2.70111e-013	3.30796e-013	3.40191e-013	3.82116e-013	3.82111e-013	
MinCout:	0	FineR:	73	FineC:	137

