	CoarseC0	CoarseC10	CoarseC20	CoarseC30	CoarseC40	CoarseC50	CoarseC60	CoarseC70	CoarseC80	CoarseC90	CoarseC100	CoarseC110	CoarseC120	CoarseC130	CoarseC140	CoarseC150	CoarseC160	CoarseC170	CoarseC180	CoarseC190	CoarseC200	CoarseC210	CoarseC220	CoarseC230	CoarseC240	CoarseC250	
CoarseR0	-1.32993e-010	-1.27684e-010	-1.26447e-010	-1.27291e-010	-1.29805e-010	-1.3276e-010	-1.36148e-010	-1.39776e-010	-1.43566e-010	-1.47362e-010	-1.51103e-010	-1.54753e-010	-1.57991e-010	-1.60535e-010	-1.62433e-010	-1.63724e-010	-1.6447e-010	-1.64837e-010	-1.65e-010	-1.64838e-010	-1.64463e-010	-1.63946e-010	-1.63301e-010	-1.62752e-010	-1.61936e-010	-1.61138e-010	
CoarseR10	-1.02746e-010	-1.00607e-010	-1.01462e-010	-1.0388e-010	-1.06865e-010	-1.10284e-010	-1.1422e-010	-1.18437e-010	-1.22907e-010	-1.27415e-010	-1.31918e-010	-1.3613e-010	-1.39982e-010	-1.42924e-010	-1.45838e-010	-1.46686e-010	-1.47932e-010	-1.48692e-010	-1.49127e-010	-1.49204e-010	-1.49168e-010	-1.48961e-010	-1.48667e-010	-1.48221e-010	-1.47665e-010	-1.47164e-010	
CoarseR20	-8.05188e-011	-8.02859e-011	-8.21568e-011	-8.49535e-011	-8.83128e-011	-9.21357e-011	-9.64523e-011	-1.01279e-010	-1.06305e-010	-1.11593e-010	-1.16916e-010	-1.22088e-010	-1.26114e-010	-1.29563e-010	-1.31783e-010	-1.33595e-010	-1.35012e-010	-1.35906e-010	-1.36535e-010	-1.3693e-010	-1.3715e-010	-1.3715e-010	-1.37031e-010	-1.36794e-010	-1.36387e-010	-1.36016e-010	
CoarseR30	-6.34118e-011	-6.3973e-011	-6.63584e-011	-6.91228e-011	-7.29125e-011	-7.72358e-011	-8.18937e-011	-8.72292e-011	-9.29674e-011	-9.9779e-011	-1.0556e-010	-1.10776e-010	-1.14785e-010	-1.18264e-010	-1.20788e-010	-1.22804e-010	-1.24364e-010	-1.25222e-010	-1.25427e-010	-1.26842e-010	-1.27283e-010	-1.27423e-010	-1.27484e-010	-1.27386e-010	-1.27153e-010	-1.26939e-010	
CoarseR40	-4.97264e-011	-5.14217e-011	-5.28792e-011	-5.61878e-011	-5.99455e-011	-6.45389e-011	-6.98686e-011	-7.56783e-011	-8.22049e-011	-8.98382e-011	-9.61314e-011	-1.01316e-010	-1.05476e-010	-1.08886e-010	-1.11783e-010	-1.13775e-010	-1.15499e-010	-1.16786e-010	-1.17738e-010	-1.18504e-010	-1.1895e-010	-1.19297e-010	-1.19476e-010	-1.19447e-010	-1.19364e-010	-1.19152e-010	
CoarseR50	-3.82152e-011	-4.00835e-011	-4.26511e-011	-4.51141e-011	-4.92366e-011	-5.39078e-011	-5.95805e-011	-6.61069e-011	-7.44806e-011	-8.18114e-011	-8.82312e-011	-9.33681e-011	-9.70123e-011	-1.00976e-010	-1.03734e-010	-1.06038e-010	-1.07895e-010	-1.09238e-010	-1.10493e-010	-1.11252e-010	-1.11793e-010	-1.12298e-010	-1.12653e-010	-1.12782e-010	-1.12702e-010	-1.12637e-010	
CoarseR60	-2.87373e-011	-3.05573e-011	-3.33632e-011	-3.69159e-011	-4.00392e-011	-4.51996e-011	-5.1334e-011	-5.89711e-011	-6.77592e-011	-7.52061e-011	-8.15409e-011	-8.65922e-011	-9.07187e-011	-9.42089e-011	-9.70958e-011	-9.8639e-011	-1.01452e-010	-1.02997e-010	-1.04161e-010	-1.05169e-010	-1.05843e-010	-1.06431e-010	-1.06772e-010	-1.07023e-010	-1.07047e-010	-1.07015e-010	
CoarseR70	-2.10955e-011	-2.29128e-011	-2.5597e-011	-2.917e-011	-3.36109e-011	-3.78167e-011	-4.43903e-011	-5.35766e-011	-6.19916e-011	-6.88696e-011	-7.55487e-011	-8.07142e-011	-8.50026e-011	-8.85387e-011	-9.14523e-011	-9.39663e-011	-9.58768e-011	-9.7526e-011	-9.88432e-011	-9.98188e-011	-1.00614e-010	-1.01332e-010	-1.01796e-010	-1.02025e-010	-1.02104e-010	-1.02208e-010	
CoarseR80	-1.47422e-011	-1.64854e-011	-1.90548e-011	-2.25836e-011	-2.71359e-011	-3.16019e-011	-3.89243e-011	-4.85825e-011	-5.68442e-011	-6.40806e-011	-7.03691e-011	-7.55166e-011	-7.98921e-011	-8.36215e-011	-8.59284e-011	-8.90064e-011	-9.1128e-011	-9.27594e-011	-9.42318e-011	-9.53509e-011	-9.62194e-011	-9.69204e-011	-9.74225e-011	-9.78276e-011	-9.80238e-011	-9.81307e-011	
CoarseR90	-9.65794e-012	-1.1169e-011	-1.35996e-011	-1.7163e-011	-2.1783e-011	-2.74115e-011	-3.45105e-011	-4.39904e-011	-5.26302e-011	-5.94829e-011	-6.56581e-011	-7.09488e-011	-7.53415e-011	-7.90418e-011	-8.22116e-011	-8.49107e-011	-8.69989e-011	-8.92267e-011	-8.96872e-011	-9.13519e-011	-9.23283e-011	-9.31538e-011	-9.36492e-011	-9.39607e-011	-9.39444e-011	-9.46264e-011	
CoarseR100	-5.50169e-012	-6.88513e-012	-9.35245e-012	-1.27549e-011	-1.72905e-011	-2.31683e-011	-3.07638e-011	-4.02586e-011	-4.85738e-011	-5.552e-011	-6.17214e-011	-6.69383e-011	-7.1242e-011	-7.52425e-011	-7.84231e-011	-8.11768e-011	-8.35113e-011	-8.52117e-011	-8.67703e-011	-8.80217e-011	-8.90799e-011	-8.98122e-011	-9.05156e-011	-9.09779e-011	-9.12887e-011	-9.1493e-011	
CoarseR110	-2.50075e-012	-3.63242e-012	-5.79196e-012	-9.02193e-012	-1.34583e-011	-1.9247e-011	-2.73033e-011	-3.67543e-011	-4.51165e-011	-5.2168e-011	-5.82566e-011	-6.36621e-011	-6.80256e-011	-7.18231e-011	-7.51709e-011	-7.80152e-011	-8.03284e-011	-8.21678e-011	-8.38198e-011	-8.52097e-011	-8.62692e-011	-8.71417e-011	-8.78007e-011	-8.83597e-011	-8.8713e-011	-8.89353e-011	
CoarseR120	-8.79335e-014	-9.3576e-013	-2.92733e-012	-6.05638e-012	-1.02993e-011	-1.61142e-011	-2.43508e-011	-3.35572e-011	-4.18778e-011	-4.91161e-011	-5.51747e-011	-6.05709e-011	-6.5212e-011	-6.90348e-011	-7.27722e-011	-7.54197e-011	-7.77288e-011	-7.96686e-011	-8.14043e-011	-8.28084e-011	-8.39254e-011	-8.48726e-011	-8.56277e-011	-8.62051e-011	-8.65415e-011	-8.68779e-011	
CoarseR130	1.57832e-012	9.1535e-013	-8.03792e-013	-3.72619e-012	-7.89273e-012	-1.35084e-011	-2.16262e-011	-3.08691e-011	-3.93159e-011	-4.65457e-011	-5.25978e-011	-5.81136e-011	-6.27871e-011	-6.67544e-011	-7.0194e-011	-7.29223e-011	-7.56397e-011	-7.76824e-011	-7.93374e-011	-8.08114e-011	-8.20071e-011	-8.30173e-011	-8.38356e-011	-8.43848e-011	-8.48382e-011	-8.51949e-011	
CoarseR140	2.77178e-012	2.236e-012	6.91187e-013	-2.01713e-012	-5.96235e-012	-1.1402e-011	-1.92724e-011	-2.86164e-011	-3.70544e-011	-4.43568e-011	-5.05493e-011	-5.60978e-011	-6.08339e-011	-6.4857e-011	-6.83475e-011	-7.11105e-011	-7.36936e-011	-7.60017e-011	-7.78083e-011	-7.93104e-011	-8.06025e-011	-8.14771e-011	-8.2366e-011	-8.29795e-011	-8.34925e-011	-8.38784e-011	
CoarseR150	3.37025e-012	3.06896e-012	1.69262e-012	-8.97384e-013	-4.63978e-012	-9.85076e-012	-1.73478e-011	-2.66526e-011	-3.51072e-011	-4.24536e-011	-4.88192e-011	-5.44115e-011	-5.9245e-011	-6.33858e-011	-6.69363e-011	-6.99426e-011	-7.25767e-011	-7.47184e-011	-7.64888e-011	-7.81416e-011	-7.93991e-011	-8.04267e-011	-8.12861e-011	-8.18792e-011	-8.24766e-011	-8.29311e-011	
CoarseR160	3.58825e-012	3.36457e-012	2.19432e-012	-1.97291e-013	-3.64683e-012	-8.53946e-012	-1.56859e-011	-2.50504e-011	-3.35639e-011	-4.09065e-011	-4.73917e-011	-5.30284e-011	-5.79153e-011	-6.20926e-011	-6.57377e-011	-6.87692e-011	-7.1822e-011	-7.36503e-011	-7.55869e-011	-7.71664e-011	-7.84923e-011	-7.96348e-011	-8.04723e-011	-8.12635e-011	-8.17048e-011	-8.20958e-011	
CoarseR170	3.40605e-012	3.52227e-012	2.43636e-012	2.40131e-013	-3.07332e-012	-7.78408e-012	-1.43463e-011	-2.37125e-011	-3.22559e-011	-3.97137e-011	-4.6271e-011	-5.18292e-011	-5.69387e-011	-6.11832e-011	-6.48856e-011	-6.80168e-011	-7.11077e-011	-7.30206e-011	-7.49012e-011	-7.65666e-011	-7.79895e-011	-7.90428e-011	-8.00411e-011	-8.07224e-011	-8.12471e-011	-8.17058e-011	
CoarseR180	3.02068e-012	3.34487e-012	2.42462e-012	3.52798e-013	-2.94611e-012	-7.34494e-012	-1.33407e-011	-2.27043e-011	-3.12379e-011	-3.86762e-011	-4.54181e-011	-5.11115e-011	-5.625e-011	-6.05582e-011	-6.4264e-011	-6.75109e-011	-7.05061e-011	-7.25859e-011	-7.45402e-011	-7.62119e-011	-7.76339e-011	-7.87495e-011	-7.96834e-011	-8.05237e-011	-8.10868e-011	-8.14945e-011	
CoarseR190	2.49943e-012	2.92393e-012	1.9767e-012	1.97333e-014	-2.94286e-012	-7.08202e-012	-1.26041e-011	-2.18883e-011	-3.05831e-011	-3.80122e-011	-4.48054e-011	-5.08036e-011	-5.57885e-011	-6.01693e-011	-6.39753e-011	-6.72692e-011	-6.96277e-011	-7.23463e-011	-7.44066e-011	-7.60582e-011	-7.75079e-011	-7.86567e-011	-7.96263e-011	-8.04214e-011	-8.09548e-011	-8.15313e-011	
CoarseR200	1.70933e-012	2.24445e-012	1.39981e-012	-3.5803e-013	-3.21164e-012	-7.23705e-012	-1.23044e-011	-2.13596e-011	-3.00726e-011	-3.75578e-011	-4.45381e-011	-5.05717e-011	-5.55669e-011	-6.00647e-011	-6.38085e-011	-6.70327e-011	-6.96684e-011	-7.23261e-011	-7.42957e-011	-7.61196e-011	-7.75319e-011	-7.87012e-011	-7.9671e-011	-8.04924e-011	-8.11043e-011	-8.15515e-011	
CoarseR210	9.2488e-013	1.56148e-012	8.64588e-013	-8.40732e-013	-3.73517e-012	-7.5216e-012	-1.22167e-011	-2.09686e-011	-2.97773e-011	-3.73653e-011	-4.43062e-011	-5.03539e-011	-5.55352e-011	-5.99456e-011	-6.38478e-011	-6.71307e-011	-6.99896e-011	-7.24313e-011	-7.44657e-011	-7.62213e-011	-7.76749e-011	-7.8914e-011	-7.9908e-011	-8.06842e-011	-8.13225e-011	-8.17602e-011	
CoarseR220	7.841e-014	8.17616e-013	2.18237e-013	-1.47341e-012	-4.1673e-012	-7.85486e-012	-1.23335e-011	-2.07152e-011	-2.96839e-011	-3.72828e-011	-4.4329e-011	-5.02982e-011	-5.55975e-011	-6.01424e-011	-6.4022e-011	-6.78386e-011	-7.01656e-011	-7.26764e-011	-7.46972e-011	-7.64929e-011	-7.78954e-011	-7.91741e-011	-8.01487e-011	-8.1008e-011	-8.16077e-011	-8.21241e-011	
CoarseR230	-7.16547e-013	1.7219e-014	-5.37813e-013	-2.10552e-012	-4.80951e-012	-8.36821e-012	-1.26103e-011	-2.06757e-011	-2.96526e-011	-3.73581e-011	-4.43526e-011	-5.04691e-011	-5.57544e-011	-6.03344e-011	-6.42789e-011	-6.70225e-011	-7.04351e-011	-7.30111e-011	-7.51277e-011	-7.68435e-011	-7.8255e-011	-7.95138e-011	-8.04777e-011	-8.13787e-011	-8.19347e-011	-8.25012e-011	
CoarseR240	-1.53636e-012	-7.78407e-013	-1.26926e-012	-2.82427e-012	-5.2465e-012	-8.8466e-012	-1.29599e-011	-2.06949e-011	-2.97899e-011	-3.75345e-011	-4.45482e-011	-5.06921e-011	-5.59892e-011	-6.06334e-011	-6.45622e-011	-6.79505e-011	-7.08641e-011	-7.33096e-011	-7.54976e-011	-7.72682e-011	-7.86393e-011	-7.99064e-011	-8.09071e-011	-8.17602e-011	-8.23996e-011	-8.28698e-011	
CoarseR250	-2.17573e-012	-1.52853e-012	-1.96324e-012	-3.51701e-012	-6.00875e-012	-9.55601e-012	-1.34578e-011	-2.07993e-011	-2.98708e-011	-3.76703e-011	-4.47797e-011	-5.09654e-011	-5.62444e-011	-6.09514e-011	-6.47685e-011	-6.83644e-011	-7.1249e-011	-7.37509e-011	-7.58835e-011	-7.77331e-011	-7.91484e-011	-8.03265e-011	-8.13415e-011	-8.2145e-011	-8.27918e-011	-8.3307e-011	
MinCout:	1.7219e-014	CoarseR:	230	CoarseC:	10

	CoarseC50	CoarseC51	CoarseC52	CoarseC53	CoarseC54	CoarseC55	CoarseC56	CoarseC57	CoarseC58	CoarseC59	CoarseC60	CoarseC61	CoarseC62	CoarseC63	CoarseC64	CoarseC65	CoarseC66	CoarseC67	CoarseC68	CoarseC69	CoarseC70	
CoarseR240	-7.96256e-012	-8.39906e-012	-8.87646e-012	-9.34663e-012	-9.78317e-012	-1.02967e-011	-1.07084e-011	-1.11538e-011	-1.17301e-011	-1.21702e-011	-1.27785e-011	-1.33839e-011	-1.40007e-011	-1.45489e-011	-1.5332e-011	-1.60694e-011	-1.68679e-011	-1.77721e-011	-1.84402e-011	-1.94584e-011	-2.03871e-011	
CoarseR241	-8.26502e-012	-8.70159e-012	-8.87627e-012	-9.34627e-012	-9.82757e-012	-1.03056e-011	-1.07433e-011	-1.12377e-011	-1.16798e-011	-1.22492e-011	-1.27807e-011	-1.34618e-011	-1.39233e-011	-1.46274e-011	-1.53382e-011	-1.60222e-011	-1.68819e-011	-1.77396e-011	-1.84477e-011	-1.95099e-011	-2.03854e-011	
CoarseR242	-8.30055e-012	-8.79575e-012	-8.97028e-012	-9.40954e-012	-9.87622e-012	-1.0354e-011	-1.08007e-011	-1.12452e-011	-1.17814e-011	-1.22702e-011	-1.28684e-011	-1.33969e-011	-1.40545e-011	-1.46372e-011	-1.54283e-011	-1.60813e-011	-1.69322e-011	-1.77994e-011	-1.84891e-011	-1.95164e-011	-2.03898e-011	
CoarseR243	-8.39488e-012	-8.84062e-012	-9.23311e-012	-9.70277e-012	-9.92984e-012	-1.04074e-011	-1.07955e-011	-1.1289e-011	-1.1825e-011	-1.23136e-011	-1.2881e-011	-1.34811e-011	-1.40656e-011	-1.46895e-011	-1.54271e-011	-1.61234e-011	-1.69308e-011	-1.78326e-011	-1.85403e-011	-1.95129e-011	-2.04406e-011	
CoarseR244	-8.44949e-012	-8.85533e-012	-9.26833e-012	-9.74747e-012	-1.01929e-011	-1.03974e-011	-1.0849e-011	-1.12975e-011	-1.18238e-011	-1.23129e-011	-1.29153e-011	-1.3524e-011	-1.40646e-011	-1.46426e-011	-1.54332e-011	-1.61208e-011	-1.69364e-011	-1.78031e-011	-1.85007e-011	-1.95497e-011	-2.04004e-011	
CoarseR245	-8.40987e-012	-8.90443e-012	-9.33186e-012	-9.79168e-012	-1.0277e-011	-1.04864e-011	-1.0893e-011	-1.13412e-011	-1.18769e-011	-1.24099e-011	-1.29761e-011	-1.35397e-011	-1.4115e-011	-1.47427e-011	-1.55647e-011	-1.6167e-011	-1.69782e-011	-1.78084e-011	-1.85504e-011	-1.95668e-011	-2.04494e-011	
CoarseR246	-9.4846e-012	-8.99418e-012	-9.37648e-012	-9.8457e-012	-1.03212e-011	-1.07042e-011	-1.11956e-011	-1.1394e-011	-1.19198e-011	-1.24621e-011	-1.30192e-011	-1.35826e-011	-1.41674e-011	-1.47852e-011	-1.54817e-011	-1.62175e-011	-1.69838e-011	-1.78971e-011	-1.85554e-011	-1.95754e-011	-2.04537e-011	
CoarseR247	-9.58397e-012	-8.95948e-012	-9.42107e-012	-9.89945e-012	-1.03747e-011	-1.0793e-011	-1.12394e-011	-1.17019e-011	-1.20176e-011	-1.25008e-011	-1.30623e-011	-1.3706e-011	-1.42015e-011	-1.49223e-011	-1.55771e-011	-1.62192e-011	-1.7034e-011	-1.78983e-011	-1.86049e-011	-1.96207e-011	-2.05026e-011	
CoarseR248	-9.62866e-012	-1.00844e-011	-9.4708e-012	-9.99805e-012	-1.04541e-011	-1.08554e-011	-1.13281e-011	-1.17359e-011	-1.21101e-011	-1.25888e-011	-1.31187e-011	-1.3762e-011	-1.42614e-011	-1.4955e-011	-1.5629e-011	-1.62794e-011	-1.70841e-011	-1.79496e-011	-1.86462e-011	-1.96699e-011	-2.05434e-011	
CoarseR249	-9.68316e-012	-1.01387e-011	-1.05024e-011	-1.00424e-011	-1.04588e-011	-1.08998e-011	-1.12871e-011	-1.17982e-011	-1.23235e-011	-1.28558e-011	-1.32421e-011	-1.37331e-011	-1.43977e-011	-1.49352e-011	-1.56351e-011	-1.63214e-011	-1.71258e-011	-1.79465e-011	-1.86974e-011	-1.96235e-011	-2.05496e-011	
CoarseR250	-9.76286e-012	-1.01733e-011	-1.06407e-011	-1.00071e-011	-1.05029e-011	-1.09345e-011	-1.13453e-011	-1.18865e-011	-1.23723e-011	-1.29399e-011	-1.34065e-011	-1.38573e-011	-1.43075e-011	-1.50496e-011	-1.5637e-011	-1.63634e-011	-1.71676e-011	-1.79963e-011	-1.87023e-011	-1.96727e-011	-2.05663e-011	
CoarseR251	-9.80718e-012	-1.02178e-011	-1.06453e-011	-1.11091e-011	-1.04317e-011	-1.09876e-011	-1.13794e-011	-1.19701e-011	-1.24246e-011	-1.30366e-011	-1.35081e-011	-1.41196e-011	-1.43577e-011	-1.49742e-011	-1.56877e-011	-1.64138e-011	-1.72176e-011	-1.8046e-011	-1.87963e-011	-1.973e-011	-2.06151e-011	
CoarseR252	-9.8716e-012	-1.03068e-011	-1.06895e-011	-1.11484e-011	-1.15796e-011	-1.10057e-011	-1.15665e-011	-1.19426e-011	-1.25569e-011	-1.29637e-011	-1.35902e-011	-1.40906e-011	-1.45254e-011	-1.50709e-011	-1.57383e-011	-1.64641e-011	-1.72315e-011	-1.80512e-011	-1.8793e-011	-1.97264e-011	-2.06194e-011	
CoarseR253	-9.95117e-012	-1.03413e-011	-1.08577e-011	-1.12612e-011	-1.16328e-011	-1.10495e-011	-1.15649e-011	-1.19861e-011	-1.25602e-011	-1.29979e-011	-1.35091e-011	-1.41246e-011	-1.4708e-011	-1.51133e-011	-1.59153e-011	-1.65145e-011	-1.72829e-011	-1.81009e-011	-1.88507e-011	-1.97837e-011	-2.06236e-011	
CoarseR254	-1.00547e-011	-1.0494e-011	-1.08619e-011	-1.13052e-011	-1.16958e-011	-1.21536e-011	-1.15782e-011	-1.19986e-011	-1.25323e-011	-1.31747e-011	-1.36239e-011	-1.42563e-011	-1.47591e-011	-1.52044e-011	-1.58407e-011	-1.65258e-011	-1.73246e-011	-1.81522e-011	-1.88572e-011	-1.98345e-011	-2.06743e-011	
CoarseR255	-1.00499e-011	-1.04197e-011	-1.09159e-011	-1.12694e-011	-1.17396e-011	-1.22413e-011	-1.16762e-011	-1.20964e-011	-1.27003e-011	-1.31376e-011	-1.36668e-011	-1.4237e-011	-1.48102e-011	-1.54271e-011	-1.59359e-011	-1.65315e-011	-1.73384e-011	-1.81474e-011	-1.89066e-011	-1.98433e-011	-2.07594e-011	
CoarseR255	-1.00795e-011	-1.05139e-011	-1.09309e-011	-1.13288e-011	-1.17942e-011	-1.22113e-011	-1.27119e-011	-1.22204e-011	-1.26202e-011	-1.31777e-011	-1.36658e-011	-1.42807e-011	-1.49353e-011	-1.54803e-011	-1.6147e-011	-1.6615e-011	-1.73467e-011	-1.82018e-011	-1.89049e-011	-1.98472e-011	-2.06685e-011	
CoarseR255	-1.00694e-011	-1.05436e-011	-1.09405e-011	-1.13137e-011	-1.1754e-011	-1.22511e-011	-1.26273e-011	-1.31685e-011	-1.27092e-011	-1.31814e-011	-1.37105e-011	-1.4236e-011	-1.48102e-011	-1.54662e-011	-1.61555e-011	-1.68276e-011	-1.73829e-011	-1.81474e-011	-1.89066e-011	-1.98373e-011	-2.07211e-011	
CoarseR255	-1.00499e-011	-1.05489e-011	-1.09207e-011	-1.13339e-011	-1.1754e-011	-1.21814e-011	-1.26628e-011	-1.30894e-011	-1.2656e-011	-1.32223e-011	-1.37105e-011	-1.43087e-011	-1.48462e-011	-1.53869e-011	-1.6147e-011	-1.68191e-011	-1.7604e-011	-1.82018e-011	-1.89066e-011	-1.98754e-011	-2.0723e-011	
CoarseR255	-1.0075e-011	-1.04744e-011	-1.09008e-011	-1.13095e-011	-1.1775e-011	-1.22021e-011	-1.26181e-011	-1.31502e-011	-1.36941e-011	-1.31823e-011	-1.37017e-011	-1.43523e-011	-1.48462e-011	-1.53869e-011	-1.61385e-011	-1.67789e-011	-1.75873e-011	-1.84147e-011	-1.88984e-011	-1.98309e-011	-2.07149e-011	
CoarseR255	-1.00203e-011	-1.04945e-011	-1.08469e-011	-1.13099e-011	-1.16512e-011	-1.2128e-011	-1.26388e-011	-1.3141e-011	-1.36451e-011	-1.42672e-011	-1.36625e-011	-1.42642e-011	-1.48962e-011	-1.54631e-011	-1.61745e-011	-1.68248e-011	-1.75873e-011	-1.8441e-011	-1.8933e-011	-1.98433e-011	-2.07513e-011	
MinCout:	-7.96256e-012	CoarseR:	240	CoarseC:	50

	FineC0	FineC10	FineC20	FineC30	FineC40	FineC50	FineC60	FineC70	FineC80	FineC90	FineC100	FineC110	FineC120	FineC130	FineC140	FineC150	FineC160	FineC170	FineC180	FineC190	FineC200	FineC210	FineC220	FineC230	FineC240	FineC250	
FineR0	-1.33154e-011	-1.36783e-011	-1.41331e-011	-1.45935e-011	-1.49185e-011	-1.53657e-011	-1.57029e-011	-1.60044e-011	-1.62904e-011	-1.54851e-011	-1.57561e-011	-1.60704e-011	-1.62847e-011	-1.65411e-011	-1.65264e-011	-1.69907e-011	-1.72391e-011	-1.73406e-011	-1.75033e-011	-1.76316e-011	-1.75574e-011	-1.76075e-011	-1.79673e-011	-1.79678e-011	-1.79354e-011	-1.79762e-011	
FineR10	-1.36368e-011	-1.40353e-011	-1.44717e-011	-1.4868e-011	-1.51915e-011	-1.56762e-011	-1.59498e-011	-1.63264e-011	-1.65667e-011	-1.67015e-011	-1.70311e-011	-1.72598e-011	-1.75377e-011	-1.77472e-011	-1.7938e-011	-1.81698e-011	-1.8397e-011	-1.84779e-011	-1.86795e-011	-1.88091e-011	-1.88657e-011	-1.89767e-011	-1.91308e-011	-1.9091e-011	-1.90981e-011	-1.91169e-011	
FineR20	-1.38477e-011	-1.42044e-011	-1.45625e-011	-1.50124e-011	-1.53317e-011	-1.56872e-011	-1.60536e-011	-1.63949e-011	-1.66974e-011	-1.68505e-011	-1.70955e-011	-1.73687e-011	-1.76225e-011	-1.78249e-011	-1.79539e-011	-1.82417e-011	-1.84001e-011	-1.86259e-011	-1.86414e-011	-1.88575e-011	-1.89392e-011	-1.90234e-011	-1.91016e-011	-1.90933e-011	-1.91219e-011	-1.91542e-011	
FineR30	-1.39327e-011	-1.42671e-011	-1.47121e-011	-1.5088e-011	-1.54703e-011	-1.58863e-011	-1.60989e-011	-1.643e-011	-1.67325e-011	-1.69418e-011	-1.71426e-011	-1.74158e-011	-1.76553e-011	-1.78564e-011	-1.80516e-011	-1.82451e-011	-1.84709e-011	-1.86321e-011	-1.87639e-011	-1.88554e-011	-1.90057e-011	-1.91299e-011	-1.91099e-011	-1.91416e-011	-1.92e-011	-1.91976e-011	
FineR40	-1.40188e-011	-1.43262e-011	-1.4743e-011	-1.50745e-011	-1.54542e-011	-1.59045e-011	-1.61961e-011	-1.64883e-011	-1.67514e-011	-1.69546e-011	-1.72095e-011	-1.74287e-011	-1.76667e-011	-1.7878e-011	-1.8089e-011	-1.82882e-011	-1.85355e-011	-1.86251e-011	-1.87624e-011	-1.88485e-011	-1.89989e-011	-1.91231e-011	-1.9183e-011	-1.93263e-011	-1.92021e-011	-1.92593e-011	
FineR50	-1.40238e-011	-1.43688e-011	-1.48023e-011	-1.51782e-011	-1.54674e-011	-1.59032e-011	-1.62401e-011	-1.6561e-011	-1.68031e-011	-1.69873e-011	-1.73029e-011	-1.74615e-011	-1.77112e-011	-1.78765e-011	-1.80976e-011	-1.82867e-011	-1.84624e-011	-1.86336e-011	-1.88055e-011	-1.88954e-011	-1.89973e-011	-1.91316e-011	-1.92661e-011	-1.92115e-011	-1.92768e-011	-1.92477e-011	
FineR60	-1.40521e-011	-1.43405e-011	-1.47336e-011	-1.51481e-011	-1.54713e-011	-1.5867e-011	-1.62129e-011	-1.6544e-011	-1.6773e-011	-1.70418e-011	-1.72366e-011	-1.74642e-011	-1.77241e-011	-1.79554e-011	-1.81365e-011	-1.82896e-011	-1.85155e-011	-1.86367e-011	-1.87872e-011	-1.89634e-011	-1.90505e-011	-1.91449e-011	-1.92694e-011	-1.92713e-011	-1.92601e-011	-1.92411e-011	
FineR70	-1.40948e-011	-1.44113e-011	-1.48589e-011	-1.52355e-011	-1.55444e-011	-1.59201e-011	-1.6266e-011	-1.65568e-011	-1.68261e-011	-1.702e-011	-1.71949e-011	-1.74642e-011	-1.77241e-011	-1.79539e-011	-1.81451e-011	-1.83327e-011	-1.85901e-011	-1.86414e-011	-1.87787e-011	-1.89134e-011	-1.90353e-011	-1.91897e-011	-1.92395e-011	-1.92847e-011	-1.92638e-011	-1.92546e-011	
FineR80	-1.41091e-011	-1.44151e-011	-1.4874e-011	-1.5244e-011	-1.55671e-011	-1.59602e-011	-1.62556e-011	-1.65804e-011	-1.68587e-011	-1.70129e-011	-1.72179e-011	-1.75617e-011	-1.77757e-011	-1.7987e-011	-1.81093e-011	-1.83157e-011	-1.84885e-011	-1.87046e-011	-1.88118e-011	-1.88919e-011	-1.90522e-011	-1.91481e-011	-1.92428e-011	-1.92348e-011	-1.92936e-011	-1.93095e-011	
FineR90	-1.41608e-011	-1.44696e-011	-1.49275e-011	-1.52877e-011	-1.56509e-011	-1.60068e-011	-1.62997e-011	-1.6601e-011	-1.68729e-011	-1.70887e-011	-1.72837e-011	-1.75719e-011	-1.77814e-011	-1.79684e-011	-1.82342e-011	-1.83157e-011	-1.85717e-011	-1.86992e-011	-1.88766e-011	-1.90065e-011	-1.90901e-011	-1.91546e-011	-1.92876e-011	-1.92033e-011	-1.92437e-011	-1.92696e-011	
FineR100	-1.41379e-011	-1.44197e-011	-1.48673e-011	-1.53217e-011	-1.56098e-011	-1.60987e-011	-1.62595e-011	-1.66854e-011	-1.68729e-011	-1.70989e-011	-1.72536e-011	-1.75806e-011	-1.77799e-011	-1.79899e-011	-1.82026e-011	-1.83503e-011	-1.85977e-011	-1.87177e-011	-1.89298e-011	-1.90198e-011	-1.90953e-011	-1.91929e-011	-1.92961e-011	-1.92118e-011	-1.93453e-011	-1.93377e-011	
FineR110	-1.41922e-011	-1.44854e-011	-1.49275e-011	-1.52809e-011	-1.56098e-011	-1.60561e-011	-1.63113e-011	-1.66943e-011	-1.6926e-011	-1.70975e-011	-1.72924e-011	-1.75659e-011	-1.77698e-011	-1.79813e-011	-1.81524e-011	-1.83989e-011	-1.85417e-011	-1.87877e-011	-1.8875e-011	-1.8965e-011	-1.91369e-011	-1.91913e-011	-1.9286e-011	-1.92617e-011	-1.9307e-011	-1.92781e-011	
FineR120	-1.41662e-011	-1.44413e-011	-1.48772e-011	-1.53313e-011	-1.55804e-011	-1.59963e-011	-1.63424e-011	-1.66152e-011	-1.69172e-011	-1.71403e-011	-1.73164e-011	-1.76062e-011	-1.78646e-011	-1.8046e-011	-1.81625e-011	-1.83503e-011	-1.86264e-011	-1.87493e-011	-1.88851e-011	-1.90113e-011	-1.91417e-011	-1.92377e-011	-1.9311e-011	-1.92981e-011	-1.9297e-011	-1.93079e-011	
FineR130	-1.41315e-011	-1.44742e-011	-1.48782e-011	-1.52713e-011	-1.5571e-011	-1.60068e-011	-1.63035e-011	-1.66451e-011	-1.69677e-011	-1.71015e-011	-1.73382e-011	-1.75674e-011	-1.78345e-011	-1.80559e-011	-1.81985e-011	-1.83117e-011	-1.85778e-011	-1.87493e-011	-1.88612e-011	-1.9016e-011	-1.91081e-011	-1.92062e-011	-1.93061e-011	-1.92981e-011	-1.93519e-011	-1.93443e-011	
FineR140	-1.41922e-011	-1.45234e-011	-1.49098e-011	-1.52702e-011	-1.56242e-011	-1.60908e-011	-1.63113e-011	-1.6649e-011	-1.69157e-011	-1.71301e-011	-1.73455e-011	-1.76148e-011	-1.77799e-011	-1.8066e-011	-1.8227e-011	-1.8435e-011	-1.86063e-011	-1.8764e-011	-1.89298e-011	-1.89798e-011	-1.91417e-011	-1.91913e-011	-1.92961e-011	-1.93114e-011	-1.9297e-011	-1.93527e-011	
FineR150	-1.41927e-011	-1.44846e-011	-1.48663e-011	-1.53206e-011	-1.55804e-011	-1.6016e-011	-1.63528e-011	-1.66348e-011	-1.69172e-011	-1.71015e-011	-1.73367e-011	-1.75659e-011	-1.78244e-011	-1.80258e-011	-1.82127e-011	-1.8409e-011	-1.86248e-011	-1.87322e-011	-1.89244e-011	-1.90198e-011	-1.91182e-011	-1.92062e-011	-1.92977e-011	-1.9303e-011	-1.9307e-011	-1.93045e-011	
FineR160	-1.41692e-011	-1.44355e-011	-1.48663e-011	-1.52626e-011	-1.56391e-011	-1.60172e-011	-1.63126e-011	-1.66373e-011	-1.68871e-011	-1.71041e-011	-1.73266e-011	-1.76062e-011	-1.78244e-011	-1.8066e-011	-1.81969e-011	-1.83603e-011	-1.85763e-011	-1.87376e-011	-1.88797e-011	-1.90645e-011	-1.91166e-011	-1.92062e-011	-1.93061e-011	-1.93065e-011	-1.92756e-011	-1.93628e-011	
FineR170	-1.41428e-011	-1.44846e-011	-1.48772e-011	-1.52916e-011	-1.56148e-011	-1.59705e-011	-1.63437e-011	-1.6679e-011	-1.68871e-011	-1.70913e-011	-1.73367e-011	-1.75761e-011	-1.78646e-011	-1.80258e-011	-1.8207e-011	-1.8415e-011	-1.86023e-011	-1.87839e-011	-1.88797e-011	-1.9056e-011	-1.91581e-011	-1.91978e-011	-1.93808e-011	-1.93413e-011	-1.93519e-011	-1.93245e-011	
FineR180	-1.41428e-011	-1.44734e-011	-1.49207e-011	-1.53246e-011	-1.56641e-011	-1.60507e-011	-1.63372e-011	-1.66477e-011	-1.69211e-011	-1.71546e-011	-1.72965e-011	-1.75746e-011	-1.78143e-011	-1.80602e-011	-1.8227e-011	-1.84034e-011	-1.86008e-011	-1.87423e-011	-1.89159e-011	-1.9016e-011	-1.91166e-011	-1.92062e-011	-1.93509e-011	-1.93429e-011	-1.93434e-011	-1.93145e-011	
FineR190	-1.41863e-011	-1.44355e-011	-1.48714e-011	-1.5286e-011	-1.56148e-011	-1.60119e-011	-1.63061e-011	-1.66387e-011	-1.68857e-011	-1.71055e-011	-1.72965e-011	-1.76205e-011	-1.78588e-011	-1.80789e-011	-1.8207e-011	-1.84079e-011	-1.86124e-011	-1.88285e-011	-1.89345e-011	-1.90708e-011	-1.92013e-011	-1.92026e-011	-1.92925e-011	-1.9308e-011	-1.93136e-011	-1.93594e-011	
FineR200	-1.41976e-011	-1.45346e-011	-1.49533e-011	-1.52956e-011	-1.56574e-011	-1.60546e-011	-1.64007e-011	-1.66932e-011	-1.69314e-011	-1.71799e-011	-1.73811e-011	-1.76002e-011	-1.78501e-011	-1.80906e-011	-1.82415e-011	-1.84049e-011	-1.86225e-011	-1.88071e-011	-1.88844e-011	-1.90308e-011	-1.91828e-011	-1.92675e-011	-1.93574e-011	-1.93894e-011	-1.93569e-011	-1.94042e-011	
FineR210	-1.4198e-011	-1.45167e-011	-1.49642e-011	-1.53682e-011	-1.56574e-011	-1.60546e-011	-1.63903e-011	-1.66632e-011	-1.69251e-011	-1.70953e-011	-1.73913e-011	-1.76118e-011	-1.78099e-011	-1.80216e-011	-1.8233e-011	-1.8441e-011	-1.86225e-011	-1.87986e-011	-1.8886e-011	-1.90608e-011	-1.91565e-011	-1.92426e-011	-1.93458e-011	-1.93563e-011	-1.93553e-011	-1.93364e-011	
FineR220	-1.41594e-011	-1.45429e-011	-1.49349e-011	-1.52559e-011	-1.56786e-011	-1.60599e-011	-1.63955e-011	-1.66477e-011	-1.69416e-011	-1.71055e-011	-1.73307e-011	-1.76548e-011	-1.78877e-011	-1.80387e-011	-1.82816e-011	-1.84581e-011	-1.8647e-011	-1.8767e-011	-1.88544e-011	-1.91193e-011	-1.91912e-011	-1.92325e-011	-1.93558e-011	-1.93676e-011	-1.93867e-011	-1.94042e-011	
FineR230	-1.42407e-011	-1.45325e-011	-1.49674e-011	-1.53886e-011	-1.56281e-011	-1.6065e-011	-1.64007e-011	-1.66829e-011	-1.693e-011	-1.71688e-011	-1.73408e-011	-1.76345e-011	-1.78287e-011	-1.80302e-011	-1.82501e-011	-1.84079e-011	-1.86225e-011	-1.88285e-011	-1.89691e-011	-1.90692e-011	-1.91529e-011	-1.92227e-011	-1.93574e-011	-1.93777e-011	-1.93484e-011	-1.93295e-011	
FineR240	-1.42236e-011	-1.45392e-011	-1.49317e-011	-1.52849e-011	-1.5668e-011	-1.60742e-011	-1.63151e-011	-1.66284e-011	-1.693e-011	-1.71546e-011	-1.73495e-011	-1.76103e-011	-1.78272e-011	-1.8109e-011	-1.82816e-011	-1.83933e-011	-1.86411e-011	-1.87885e-011	-1.88844e-011	-1.90708e-011	-1.91698e-011	-1.92611e-011	-1.93458e-011	-1.93462e-011	-1.93569e-011	-1.93279e-011	
FineR250	-1.41976e-011	-1.45004e-011	-1.49249e-011	-1.52956e-011	-1.5668e-011	-1.60946e-011	-1.63903e-011	-1.66829e-011	-1.6902e-011	-1.71069e-011	-1.73321e-011	-1.76118e-011	-1.77885e-011	-1.80016e-011	-1.8233e-011	-1.84495e-011	-1.86586e-011	-1.88185e-011	-1.89345e-011	-1.90507e-011	-1.91513e-011	-1.92575e-011	-1.93458e-011	-1.93378e-011	-1.93569e-011	-1.93644e-011	
MinCout:	-1.33154e-011	FineR:	0	FineC:	0

	FineC40	FineC41	FineC42	FineC43	FineC44	FineC45	FineC46	FineC47	FineC48	FineC49	FineC50	FineC51	FineC52	FineC53	FineC54	FineC55	FineC56	FineC57	FineC58	FineC59	FineC60	
FineR10	-1.5378e-011	-1.53773e-011	-1.53927e-011	-1.54415e-011	-1.55075e-011	-1.55335e-011	-1.55062e-011	-1.55025e-011	-1.56019e-011	-1.56678e-011	-1.57233e-011	-1.57103e-011	-1.57967e-011	-1.57694e-011	-1.58158e-011	-1.58298e-011	-1.58712e-011	-1.59319e-011	-1.59448e-011	-1.59681e-011	-1.60445e-011	
FineR11	-1.5318e-011	-1.53973e-011	-1.54061e-011	-1.54626e-011	-1.55315e-011	-1.55786e-011	-1.55527e-011	-1.55694e-011	-1.56446e-011	-1.56908e-011	-1.57581e-011	-1.57295e-011	-1.58303e-011	-1.58172e-011	-1.58895e-011	-1.58518e-011	-1.59178e-011	-1.59864e-011	-1.59448e-011	-1.60407e-011	-1.60043e-011	
FineR12	-1.54007e-011	-1.54295e-011	-1.54699e-011	-1.54959e-011	-1.55114e-011	-1.55774e-011	-1.55916e-011	-1.56187e-011	-1.5615e-011	-1.57612e-011	-1.5731e-011	-1.57735e-011	-1.58198e-011	-1.58858e-011	-1.59091e-011	-1.59555e-011	-1.59178e-011	-1.60266e-011	-1.59876e-011	-1.60109e-011	-1.60678e-011	
FineR13	-1.54445e-011	-1.54733e-011	-1.54888e-011	-1.55293e-011	-1.55847e-011	-1.56201e-011	-1.56165e-011	-1.5712e-011	-1.57181e-011	-1.57402e-011	-1.57712e-011	-1.57827e-011	-1.58395e-011	-1.58457e-011	-1.59519e-011	-1.59996e-011	-1.59618e-011	-1.59643e-011	-1.60614e-011	-1.61055e-011	-1.60873e-011	
FineR14	-1.54833e-011	-1.55027e-011	-1.55499e-011	-1.56081e-011	-1.56341e-011	-1.56496e-011	-1.56957e-011	-1.56922e-011	-1.57582e-011	-1.57841e-011	-1.58008e-011	-1.58279e-011	-1.58638e-011	-1.58457e-011	-1.59619e-011	-1.60681e-011	-1.60317e-011	-1.59643e-011	-1.60523e-011	-1.60601e-011	-1.61171e-011	
FineR15	-1.54433e-011	-1.54733e-011	-1.54994e-011	-1.55681e-011	-1.55435e-011	-1.5599e-011	-1.56755e-011	-1.57015e-011	-1.57181e-011	-1.57231e-011	-1.57996e-011	-1.58267e-011	-1.5873e-011	-1.58897e-011	-1.59322e-011	-1.59477e-011	-1.60111e-011	-1.59254e-011	-1.60083e-011	-1.61145e-011	-1.61313e-011	
FineR16	-1.54578e-011	-1.54627e-011	-1.55432e-011	-1.54881e-011	-1.55646e-011	-1.56095e-011	-1.56367e-011	-1.5656e-011	-1.56472e-011	-1.57336e-011	-1.57541e-011	-1.58162e-011	-1.59275e-011	-1.59233e-011	-1.59361e-011	-1.59633e-011	-1.59955e-011	-1.60083e-011	-1.60951e-011	-1.60782e-011	-1.61209e-011	
FineR17	-1.54472e-011	-1.55054e-011	-1.55021e-011	-1.55825e-011	-1.55567e-011	-1.56122e-011	-1.56381e-011	-1.56536e-011	-1.57208e-011	-1.57467e-011	-1.58126e-011	-1.58293e-011	-1.58159e-011	-1.58923e-011	-1.59453e-011	-1.60319e-011	-1.60046e-011	-1.60083e-011	-1.60744e-011	-1.60769e-011	-1.61741e-011	
FineR18	-1.53955e-011	-1.5476e-011	-1.55565e-011	-1.56119e-011	-1.55874e-011	-1.56239e-011	-1.56926e-011	-1.56987e-011	-1.56807e-011	-1.57257e-011	-1.57956e-011	-1.58084e-011	-1.58756e-011	-1.58819e-011	-1.5988e-011	-1.60009e-011	-1.60241e-011	-1.60201e-011	-1.60226e-011	-1.6086e-011	-1.61028e-011	
FineR19	-1.54593e-011	-1.55786e-011	-1.55447e-011	-1.55001e-011	-1.56006e-011	-1.56254e-011	-1.56618e-011	-1.57278e-011	-1.573e-011	-1.57559e-011	-1.57621e-011	-1.5828e-011	-1.58848e-011	-1.5891e-011	-1.59374e-011	-1.59542e-011	-1.60163e-011	-1.60938e-011	-1.60264e-011	-1.60588e-011	-1.61858e-011	
FineR20	-1.55126e-011	-1.55425e-011	-1.55435e-011	-1.55734e-011	-1.56394e-011	-1.56549e-011	-1.57006e-011	-1.56963e-011	-1.57622e-011	-1.57585e-011	-1.58449e-011	-1.58708e-011	-1.58678e-011	-1.59246e-011	-1.60023e-011	-1.59232e-011	-1.59864e-011	-1.60537e-011	-1.60861e-011	-1.60886e-011	-1.61858e-011	
FineR21	-1.5502e-011	-1.55519e-011	-1.55661e-011	-1.55828e-011	-1.56914e-011	-1.56773e-011	-1.57538e-011	-1.57988e-011	-1.57753e-011	-1.58426e-011	-1.58684e-011	-1.58708e-011	-1.59171e-011	-1.5935e-011	-1.59466e-011	-1.60035e-011	-1.60669e-011	-1.60732e-011	-1.60355e-011	-1.60782e-011	-1.61715e-011	
FineR22	-1.5502e-011	-1.55319e-011	-1.55369e-011	-1.56173e-011	-1.55994e-011	-1.56798e-011	-1.56952e-011	-1.58e-011	-1.581e-011	-1.57728e-011	-1.58631e-011	-1.5939e-011	-1.59209e-011	-1.59882e-011	-1.60346e-011	-1.60475e-011	-1.60603e-011	-1.61172e-011	-1.61301e-011	-1.61728e-011	-1.61896e-011	
FineR23	-1.54659e-011	-1.55358e-011	-1.55618e-011	-1.55984e-011	-1.56421e-011	-1.5649e-011	-1.57484e-011	-1.57638e-011	-1.58193e-011	-1.58063e-011	-1.58723e-011	-1.58746e-011	-1.59222e-011	-1.59481e-011	-1.60049e-011	-1.60216e-011	-1.61044e-011	-1.61172e-011	-1.6134e-011	-1.61456e-011	-1.62337e-011	
FineR24	-1.55564e-011	-1.55346e-011	-1.55712e-011	-1.5601e-011	-1.56859e-011	-1.57119e-011	-1.57484e-011	-1.57342e-011	-1.57897e-011	-1.58464e-011	-1.59162e-011	-1.59691e-011	-1.60181e-011	-1.59611e-011	-1.60685e-011	-1.60605e-011	-1.60332e-011	-1.61302e-011	-1.6182e-011	-1.61547e-011	-1.62415e-011	
FineR25	-1.55591e-011	-1.55452e-011	-1.55856e-011	-1.56504e-011	-1.56658e-011	-1.56812e-011	-1.57911e-011	-1.57626e-011	-1.58324e-011	-1.587e-011	-1.5915e-011	-1.58981e-011	-1.59937e-011	-1.60208e-011	-1.60969e-011	-1.61136e-011	-1.61369e-011	-1.61393e-011	-1.61522e-011	-1.61858e-011	-1.62532e-011	
FineR26	-1.55697e-011	-1.56184e-011	-1.55645e-011	-1.56942e-011	-1.57295e-011	-1.57344e-011	-1.57176e-011	-1.57874e-011	-1.5804e-011	-1.58595e-011	-1.59058e-011	-1.59421e-011	-1.59884e-011	-1.60063e-011	-1.60476e-011	-1.60513e-011	-1.61278e-011	-1.60797e-011	-1.62273e-011	-1.61858e-011	-1.62934e-011	
FineR27	-1.55191e-011	-1.55878e-011	-1.5615e-011	-1.56648e-011	-1.55857e-011	-1.5685e-011	-1.57472e-011	-1.58275e-011	-1.57989e-011	-1.58452e-011	-1.59656e-011	-1.59679e-011	-1.59444e-011	-1.59908e-011	-1.60685e-011	-1.60399e-011	-1.61265e-011	-1.609e-011	-1.61418e-011	-1.61443e-011	-1.62712e-011	
FineR28	-1.55591e-011	-1.55878e-011	-1.5635e-011	-1.56741e-011	-1.57295e-011	-1.57567e-011	-1.57615e-011	-1.57368e-011	-1.57884e-011	-1.58582e-011	-1.58749e-011	-1.59705e-011	-1.59483e-011	-1.60557e-011	-1.60075e-011	-1.61136e-011	-1.61265e-011	-1.61043e-011	-1.61366e-011	-1.61987e-011	-1.62557e-011	
FineR29	-1.56123e-011	-1.56023e-011	-1.56376e-011	-1.56425e-011	-1.57097e-011	-1.57395e-011	-1.58054e-011	-1.58196e-011	-1.58763e-011	-1.58983e-011	-1.58892e-011	-1.59007e-011	-1.59871e-011	-1.60439e-011	-1.60309e-011	-1.6063e-011	-1.61369e-011	-1.60888e-011	-1.61858e-011	-1.61884e-011	-1.6222e-011	
FineR30	-1.56084e-011	-1.55478e-011	-1.56882e-011	-1.5653e-011	-1.57097e-011	-1.56956e-011	-1.58147e-011	-1.57473e-011	-1.58429e-011	-1.59127e-011	-1.59188e-011	-1.59408e-011	-1.60377e-011	-1.60439e-011	-1.60764e-011	-1.60735e-011	-1.61265e-011	-1.61536e-011	-1.61963e-011	-1.61987e-011	-1.62453e-011	
MinCout:	-1.5318e-011	FineR:	11	FineC:	40

