	CoarseC0	CoarseC10	CoarseC20	CoarseC30	CoarseC40	CoarseC50	CoarseC60	CoarseC70	CoarseC80	CoarseC90	CoarseC100	CoarseC110	CoarseC120	CoarseC130	CoarseC140	CoarseC150	CoarseC160	CoarseC170	CoarseC180	CoarseC190	CoarseC200	CoarseC210	CoarseC220	CoarseC230	CoarseC240	CoarseC250	
CoarseR0	4.90932e-010	-3.05788e-010	-2.94459e-010	-2.86015e-010	-2.7922e-010	-2.74478e-010	-2.70875e-010	-2.67934e-010	-2.65605e-010	-2.63617e-010	-2.61668e-010	-2.60029e-010	-2.59068e-010	-2.58373e-010	-2.57652e-010	-2.57785e-010	-2.58063e-010	-2.58094e-010	-2.57647e-010	-2.57045e-010	-2.5606e-010	-2.5475e-010	-2.53337e-010	-2.51531e-010	-2.49467e-010	-2.47408e-010	
CoarseR10	4.6321e-010	4.68955e-010	-2.15264e-010	-2.08552e-010	-2.02879e-010	-1.9914e-010	-1.96451e-010	-1.95092e-010	-1.94317e-010	-1.93653e-010	-1.93339e-010	-1.94217e-010	-1.95788e-010	-1.97464e-010	-1.98837e-010	-2.00154e-010	-2.00972e-010	-2.01617e-010	-2.0193e-010	-2.02191e-010	-2.01811e-010	-2.01516e-010	-2.00964e-010	-2.00192e-010	-1.99223e-010	-1.98358e-010	
CoarseR20	4.29509e-010	4.35882e-010	-1.54685e-010	-1.49399e-010	-1.46296e-010	-1.43411e-010	-1.42121e-010	-1.41378e-010	-1.41716e-010	-1.43388e-010	-1.45427e-010	-1.47724e-010	-1.49661e-010	-1.51809e-010	-1.5366e-010	-1.5555e-010	-1.57266e-010	-1.58547e-010	-1.59768e-010	-1.60855e-010	-1.61678e-010	-1.62665e-010	-1.63951e-010	-1.65084e-010	-1.66045e-010	-1.66976e-010	
CoarseR30	3.92508e-010	3.92062e-010	3.91298e-010	-1.05362e-010	-1.02967e-010	-1.01636e-010	-1.00276e-010	-1.0169e-010	-1.03628e-010	-1.05733e-010	-1.08137e-010	-1.10754e-010	-1.13116e-010	-1.15818e-010	-1.18275e-010	-1.20915e-010	-1.2332e-010	-1.257e-010	-1.28132e-010	-1.31193e-010	-1.34151e-010	-1.37176e-010	-1.39819e-010	-1.41742e-010	-1.43104e-010	-1.44257e-010	
CoarseR40	3.90514e-010	4.30305e-010	4.37557e-010	4.48072e-010	-6.97012e-011	-6.98218e-011	-7.12509e-011	-7.2978e-011	-7.32233e-011	-7.55367e-011	-7.81392e-011	-8.10683e-011	-8.38301e-011	-8.70173e-011	-9.01942e-011	-9.35491e-011	-9.72342e-011	-1.01599e-010	-1.06339e-010	-1.11141e-010	-1.14977e-010	-1.18242e-010	-1.21024e-010	-1.23139e-010	-1.24613e-010	-1.26035e-010	
CoarseR50	4.04217e-010	4.07133e-010	4.23433e-010	4.33338e-010	4.76563e-010	-4.57501e-011	-4.69903e-011	-4.85889e-011	-5.07499e-011	-5.31713e-011	-5.40452e-011	-5.72679e-011	-6.04199e-011	-6.42839e-011	-6.83203e-011	-7.3321e-011	-7.9295e-011	-8.53396e-011	-9.06653e-011	-9.5513e-011	-9.94255e-011	-1.02765e-010	-1.05522e-010	-1.07923e-010	-1.09546e-010	-1.11136e-010	
CoarseR60	3.86864e-010	4.15179e-010	4.47794e-010	4.7214e-010	4.63864e-010	4.83118e-010	5.15323e-010	-2.87981e-011	-3.09028e-011	-3.34657e-011	-3.64501e-011	-4.02165e-011	-4.18448e-011	-4.65158e-011	-5.23152e-011	-5.91752e-011	-6.62521e-011	-7.23414e-011	-7.76445e-011	-8.23913e-011	-8.63127e-011	-8.96251e-011	-9.25798e-011	-9.49667e-011	-9.67384e-011	-9.84383e-011	
CoarseR70	3.87273e-010	4.00404e-010	4.36247e-010	4.60208e-010	4.91227e-010	4.70168e-010	5.0468e-010	5.36402e-010	-1.46509e-011	-1.73819e-011	-2.05129e-011	-2.45489e-011	-2.90002e-011	-3.4553e-011	-4.05484e-011	-4.82594e-011	-5.52806e-011	-6.12292e-011	-6.64491e-011	-7.11979e-011	-7.4986e-011	-7.84661e-011	-8.14581e-011	-8.39244e-011	-8.58102e-011	-8.76071e-011	
CoarseR80	3.90677e-010	4.19911e-010	4.75484e-010	4.69792e-010	5.09696e-010	5.08233e-010	5.32996e-010	5.32826e-010	-1.65916e-012	-4.22055e-012	-7.59828e-012	-1.19362e-011	-1.74334e-011	-2.50471e-011	-3.32833e-011	-3.89063e-011	-4.58068e-011	-5.15817e-011	-5.6776e-011	-6.14727e-011	-6.53712e-011	-6.87694e-011	-7.18113e-011	-7.4414e-011	-7.63492e-011	-7.8248e-011	
CoarseR90	3.95644e-010	4.0789e-010	4.29259e-010	4.73773e-010	5.01339e-010	5.1043e-010	5.17797e-010	5.3328e-010	5.77102e-010	6.51417e-012	2.90907e-012	-1.76337e-012	-8.48944e-012	-1.67709e-011	-2.49119e-011	-3.24473e-011	-3.72446e-011	-4.31019e-011	-4.8283e-011	-5.30271e-011	-5.69904e-011	-6.03953e-011	-6.35715e-011	-6.60893e-011	-6.81229e-011	-7.01383e-011	
CoarseR100	3.91484e-010	4.17709e-010	4.53416e-010	4.72713e-010	5.30239e-010	5.24485e-010	5.4834e-010	5.40993e-010	5.98827e-010	6.13067e-010	1.16961e-011	6.28274e-012	-1.07755e-012	-9.61535e-012	-1.76745e-011	-2.4952e-011	-3.16272e-011	-3.56301e-011	-4.07514e-011	-4.54744e-011	-4.95171e-011	-5.30344e-011	-5.62083e-011	-5.89393e-011	-6.1011e-011	-6.30841e-011	
CoarseR110	3.87859e-010	4.07788e-010	4.46168e-010	4.46693e-010	4.8016e-010	5.12922e-010	5.38178e-010	5.46651e-010	5.84173e-010	5.69339e-010	1.88943e-011	1.27409e-011	5.48089e-012	-3.2588e-012	-1.10115e-011	-1.80938e-011	-2.48048e-011	-2.89764e-011	-3.41417e-011	-3.8906e-011	-4.2966e-011	-4.65715e-011	-4.97305e-011	-5.25413e-011	-5.47865e-011	-5.68968e-011	
CoarseR120	4.06275e-010	4.27274e-010	4.33046e-010	4.61152e-010	4.6062e-010	5.06491e-010	4.93149e-010	5.1999e-010	5.36088e-010	5.26069e-010	2.48206e-011	1.84851e-011	1.10503e-011	2.50935e-012	-5.26807e-012	-1.21959e-011	-1.88622e-011	-2.30059e-011	-2.83218e-011	-3.30704e-011	-3.71734e-011	-4.07799e-011	-4.41712e-011	-4.70428e-011	-4.92697e-011	-5.15178e-011	
CoarseR130	3.96008e-010	4.21534e-010	4.2991e-010	4.37698e-010	4.42766e-010	4.81714e-010	4.98459e-010	5.06346e-010	4.97627e-010	5.32989e-010	2.97196e-011	2.34031e-011	1.59128e-011	7.55589e-012	-3.99562e-014	-7.168e-012	-1.3721e-011	-1.78668e-011	-2.31968e-011	-2.80125e-011	-3.20908e-011	-3.58348e-011	-3.92498e-011	-4.22127e-011	-4.46014e-011	-4.68359e-011	
CoarseR140	3.47501e-010	4.05112e-010	4.20551e-010	4.27172e-010	4.4826e-010	4.69301e-010	4.57718e-010	4.88498e-010	5.05144e-010	5.30256e-010	3.36934e-011	2.75428e-011	2.02622e-011	1.19502e-011	4.45087e-012	-2.62084e-012	-9.15468e-012	-1.34197e-011	-1.86363e-011	-2.35826e-011	-2.77955e-011	-3.16297e-011	-3.49847e-011	-3.80152e-011	-4.04761e-011	-4.28597e-011	
CoarseR150	3.73562e-010	3.91133e-010	4.40488e-010	4.1938e-010	4.30808e-010	4.57654e-010	4.79485e-010	4.8296e-010	5.23431e-010	5.34148e-010	3.69688e-011	3.11535e-011	2.4287e-011	1.59593e-011	8.3692e-012	1.30808e-012	-5.19715e-012	-9.47039e-012	-1.48217e-011	-1.97757e-011	-2.3985e-011	-2.79068e-011	-3.14124e-011	-3.45605e-011	-3.7035e-011	-3.94334e-011	
CoarseR160	3.87057e-010	4.02828e-010	3.888e-010	3.97746e-010	4.39042e-010	4.72838e-010	4.7817e-010	5.12617e-010	5.03508e-010	5.48878e-010	3.95627e-011	3.42618e-011	2.74614e-011	1.9394e-011	1.18611e-011	4.69483e-012	-1.82221e-012	-6.17067e-012	-1.14735e-011	-1.65043e-011	-2.08766e-011	-2.48201e-011	-2.84638e-011	-3.15287e-011	-3.40816e-011	-3.65841e-011	
CoarseR170	3.67444e-010	3.90196e-010	4.08826e-010	4.10547e-010	4.24932e-010	4.53985e-010	4.86213e-010	4.96741e-010	5.19773e-010	5.41237e-010	4.15038e-011	3.6733e-011	3.02944e-011	2.23481e-011	1.46834e-011	7.5626e-012	2.13187e-012	-3.38296e-012	-8.83133e-012	-1.39091e-011	-1.82391e-011	-2.22626e-011	-2.58638e-011	-2.91503e-011	-3.17456e-011	-3.42721e-011	
CoarseR180	3.59995e-010	3.66811e-010	3.99071e-010	4.29357e-010	4.56148e-010	4.98544e-010	5.13914e-010	5.75966e-010	5.35806e-010	4.48685e-011	4.26351e-011	3.85836e-011	3.23346e-011	2.47617e-011	1.73072e-011	1.01269e-011	4.85394e-012	-1.13478e-012	-6.62277e-012	-1.17503e-011	-1.61653e-011	-2.01454e-011	-2.39542e-011	-2.72516e-011	-2.98834e-011	-3.25063e-011	
CoarseR190	3.61062e-010	3.78183e-010	4.2796e-010	4.6978e-010	4.57228e-010	5.4578e-010	5.59541e-010	5.53371e-010	5.90356e-010	4.54394e-011	4.33876e-011	3.99183e-011	3.41375e-011	2.68435e-011	1.91035e-011	1.19747e-011	6.72511e-012	7.16371e-013	-4.7718e-012	-1.01484e-011	-1.45918e-011	-1.86363e-011	-2.24149e-011	-2.57713e-011	-2.8511e-011	-3.11495e-011	
CoarseR200	3.57752e-010	3.69279e-010	4.69145e-010	4.672e-010	4.50828e-010	5.358e-010	5.33815e-010	5.70344e-010	6.00577e-010	4.55033e-011	4.38246e-011	4.0732e-011	3.53544e-011	2.84106e-011	2.08072e-011	1.35139e-011	8.16914e-012	2.13472e-012	-3.49082e-012	-8.80583e-012	-1.33561e-011	-1.75073e-011	-2.13397e-011	-2.46662e-011	-2.75115e-011	-3.01817e-011	
CoarseR210	3.74052e-010	3.86026e-010	4.23238e-010	4.69019e-010	5.05213e-010	5.26192e-010	5.398e-010	5.56568e-010	5.69942e-010	4.53524e-011	4.37766e-011	4.08192e-011	3.63984e-011	2.94834e-011	2.20677e-011	1.46847e-011	9.28113e-012	3.07794e-012	-2.54928e-012	-7.92393e-012	-1.25897e-011	-1.67621e-011	-2.05786e-011	-2.39959e-011	-2.67767e-011	-2.95587e-011	
CoarseR220	3.71082e-010	4.09813e-010	4.29783e-010	4.646e-010	5.08838e-010	5.65608e-010	5.19758e-010	5.59802e-010	6.03715e-010	4.48898e-011	4.33656e-011	4.08131e-011	3.68403e-011	3.01868e-011	2.28479e-011	1.55638e-011	9.96679e-012	3.78412e-012	-1.95595e-012	-7.34681e-012	-1.20259e-011	-1.63341e-011	-2.01677e-011	-2.36151e-011	-2.64203e-011	-2.91859e-011	
CoarseR230	3.78167e-010	3.93587e-010	4.45895e-010	5.06695e-010	5.25102e-010	5.56221e-010	5.33262e-010	5.44667e-010	5.69388e-010	4.43009e-011	4.2884e-011	4.04112e-011	3.70152e-011	3.05351e-011	2.34661e-011	1.6584e-011	1.04537e-011	4.19531e-012	-1.59466e-012	-7.05964e-012	-1.17912e-011	-1.60825e-011	-2.00521e-011	-2.35319e-011	-2.63094e-011	-2.91784e-011	
CoarseR240	3.7719e-010	4.21929e-010	4.47969e-010	4.54129e-010	5.25789e-010	5.54862e-010	5.45104e-010	5.62854e-010	5.60281e-010	4.33639e-011	4.21778e-011	3.99403e-011	3.67313e-011	3.06418e-011	2.37884e-011	1.64814e-011	1.07406e-011	4.44067e-012	-1.4604e-012	-6.97504e-012	-1.17374e-011	-1.60399e-011	-2.00641e-011	-2.36334e-011	-2.644e-011	-2.92978e-011	
CoarseR250	3.77442e-010	3.99733e-010	4.22448e-010	4.98562e-010	5.35361e-010	5.18258e-010	5.44932e-010	5.61053e-010	5.60459e-010	4.25651e-011	4.14963e-011	3.92734e-011	3.63825e-011	3.05703e-011	2.38522e-011	1.69836e-011	1.07205e-011	4.35039e-012	-1.53976e-012	-7.06622e-012	-1.19322e-011	-1.62202e-011	-2.02042e-011	-2.37831e-011	-2.6652e-011	-2.95775e-011	
MinCout:	-3.99562e-014	CoarseR:	130	CoarseC:	140

	CoarseC70	CoarseC71	CoarseC72	CoarseC73	CoarseC74	CoarseC75	CoarseC76	CoarseC77	CoarseC78	CoarseC79	CoarseC80	CoarseC81	CoarseC82	CoarseC83	CoarseC84	CoarseC85	CoarseC86	CoarseC87	CoarseC88	CoarseC89	CoarseC90	
CoarseR70	-1.19567e-011	-1.23557e-011	-1.26422e-011	-1.27871e-011	-1.30226e-011	-1.30833e-011	-1.32584e-011	-1.30291e-011	-1.37128e-011	-1.27278e-011	-1.37617e-011	-1.29825e-011	-1.42939e-011	-1.33189e-011	-1.35988e-011	-1.38553e-011	-1.41087e-011	-1.44512e-011	-1.46817e-011	-1.51668e-011	-1.53197e-011	
CoarseR71	5.34284e-010	5.48078e-010	-1.11514e-011	-1.13694e-011	-1.15409e-011	-1.15574e-011	-1.18301e-011	-1.19752e-011	-1.14398e-011	-1.24983e-011	-1.11991e-011	-1.2946e-011	-1.16647e-011	-1.34819e-011	-1.21251e-011	-1.25139e-011	-1.27108e-011	-1.29772e-011	-1.32129e-011	-1.37007e-011	-1.39441e-011	
CoarseR72	5.41973e-010	5.37294e-010	-9.72483e-012	-9.87631e-012	-1.00959e-011	-1.02646e-011	-1.03404e-011	-1.0178e-011	-1.08407e-011	-9.84322e-012	-1.10263e-011	-1.01088e-011	-1.16137e-011	-1.04611e-011	-1.07123e-011	-1.09822e-011	-1.12366e-011	-1.15478e-011	-1.17775e-011	-1.22421e-011	-1.24795e-011	
CoarseR73	5.51209e-010	5.22752e-010	5.49123e-010	5.58292e-010	-8.69284e-012	-8.85528e-012	-8.85928e-012	-8.83881e-012	-8.8339e-012	-8.9598e-012	-9.10161e-012	-9.28483e-012	-9.37187e-012	-9.11694e-012	-9.32937e-012	-9.65543e-012	-9.88654e-012	-1.01459e-011	-1.03715e-011	-1.08784e-011	-1.1079e-011	
CoarseR74	5.28957e-010	5.33672e-010	5.26967e-010	5.52453e-010	5.37845e-010	-7.4711e-012	-7.53457e-012	-7.25133e-012	-7.55649e-012	-7.57092e-012	-7.57e-012	-7.93663e-012	-7.8475e-012	-7.70496e-012	-7.95498e-012	-8.27022e-012	-8.51798e-012	-8.78464e-012	-9.02867e-012	-9.44353e-012	-9.68852e-012	
CoarseR75	5.47243e-010	5.21048e-010	5.39257e-010	5.33822e-010	5.64775e-010	-6.08156e-012	-6.18803e-012	-5.88502e-012	-6.19166e-012	-6.07091e-012	-6.40099e-012	-6.3694e-012	-6.64868e-012	-6.3311e-012	-8.14711e-012	-6.9514e-012	-7.26682e-012	-7.5252e-012	-7.70932e-012	-8.16606e-012	-8.37019e-012	
CoarseR76	5.42824e-010	5.21835e-010	5.21852e-010	5.10516e-010	5.40182e-010	5.31232e-010	5.49875e-010	-4.5631e-012	-4.69468e-012	-4.83339e-012	-4.93878e-012	-5.18961e-012	-5.14275e-012	-5.07294e-012	-5.32737e-012	-5.61011e-012	-5.98588e-012	-6.2123e-012	-6.44591e-012	-6.91227e-012	-7.0929e-012	
CoarseR77	5.2745e-010	5.39392e-010	5.41703e-010	5.33883e-010	5.56088e-010	5.41621e-010	5.38146e-010	5.33029e-010	-4.00747e-012	-4.29207e-012	-3.03466e-012	-4.83478e-012	-3.60926e-012	-5.31384e-012	-4.07055e-012	-4.31444e-012	-4.63506e-012	-4.91921e-012	-5.16272e-012	-5.59256e-012	-5.85256e-012	
CoarseR78	5.30064e-010	5.50032e-010	5.36102e-010	5.54825e-010	5.71385e-010	5.3885e-010	5.45076e-010	5.51405e-010	-2.75422e-012	-2.97081e-012	-1.79877e-012	-3.64717e-012	-2.33704e-012	-4.00063e-012	-2.84981e-012	-3.1354e-012	-3.38524e-012	-3.65209e-012	-3.90976e-012	-4.34212e-012	-4.59755e-012	
CoarseR79	5.37921e-010	5.30703e-010	5.5785e-010	5.30826e-010	5.48874e-010	5.34366e-010	5.67582e-010	5.74897e-010	5.93045e-010	5.4634e-010	-2.10785e-012	-8.08355e-013	-2.69836e-012	-1.29944e-012	-1.571e-012	-1.86702e-012	-2.20764e-012	-2.43523e-012	-2.71139e-012	-3.12323e-012	-3.35377e-012	
CoarseR80	5.43877e-010	5.83486e-010	5.3574e-010	5.59476e-010	5.69378e-010	5.68157e-010	5.42239e-010	5.45856e-010	5.2559e-010	5.5943e-010	5.91536e-010	-1.03991e-012	1.29219e-013	-1.61169e-012	-4.36178e-013	-6.89088e-013	-9.82692e-013	-1.22886e-012	-1.48439e-012	-1.9682e-012	-2.13925e-012	
CoarseR81	5.4763e-010	5.45123e-010	5.90419e-010	5.79454e-010	5.60919e-010	5.29575e-010	5.76214e-010	5.71762e-010	5.594e-010	5.67481e-010	5.64145e-010	5.6842e-010	1.3353e-012	1.08722e-012	7.55729e-013	5.00472e-013	2.04353e-013	-4.45442e-014	-3.02626e-013	-7.50038e-013	-1.01646e-012	
CoarseR82	5.70046e-010	5.60176e-010	5.4334e-010	5.75223e-010	5.56716e-010	5.62984e-010	5.70017e-010	5.70423e-010	5.69165e-010	5.24606e-010	5.55109e-010	5.72187e-010	9.56019e-013	2.24457e-012	1.94914e-012	1.6021e-012	1.34977e-012	1.1024e-012	7.92095e-013	3.99438e-013	1.07123e-013	
CoarseR83	5.37359e-010	5.57369e-010	5.4257e-010	5.62695e-010	5.54844e-010	5.81711e-010	5.94246e-010	5.69879e-010	5.80996e-010	5.56687e-010	5.88426e-010	5.49883e-010	5.58555e-010	3.36377e-012	1.6422e-012	2.81583e-012	2.49913e-012	2.25311e-012	2.01625e-012	1.54094e-012	1.30752e-012	
CoarseR84	5.68423e-010	5.44329e-010	5.82341e-010	5.63004e-010	5.74102e-010	5.58713e-010	5.53253e-010	5.82954e-010	5.49701e-010	5.8526e-010	5.426e-010	5.77208e-010	5.73752e-010	2.92784e-012	4.1939e-012	3.91762e-012	3.576e-012	3.31505e-012	3.08034e-012	2.67118e-012	2.43544e-012	
CoarseR85	5.35836e-010	5.69821e-010	5.5793e-010	5.65974e-010	5.65595e-010	5.64563e-010	5.61258e-010	5.50475e-010	5.86977e-010	5.79296e-010	5.62116e-010	5.39461e-010	5.74148e-010	5.64827e-010	5.30594e-012	4.95828e-012	4.68673e-012	4.4273e-012	4.15178e-012	3.65596e-012	3.45223e-012	
CoarseR86	5.82282e-010	5.18804e-010	5.48764e-010	5.64735e-010	5.48085e-010	6.07705e-010	5.48794e-010	5.86863e-010	5.64968e-010	5.77205e-010	5.63081e-010	6.09066e-010	5.63633e-010	5.71754e-010	5.90574e-010	5.97841e-012	5.76275e-012	5.49679e-012	5.16837e-012	4.76681e-012	4.51414e-012	
CoarseR87	5.43959e-010	5.44025e-010	5.77405e-010	5.5424e-010	5.66791e-010	5.72617e-010	5.49318e-010	5.73532e-010	5.9856e-010	5.73955e-010	5.81188e-010	6.0235e-010	5.87175e-010	5.89342e-010	5.46199e-010	5.79962e-010	6.78774e-012	6.49302e-012	6.28491e-012	5.81877e-012	5.54171e-012	
CoarseR88	5.60794e-010	5.66048e-010	5.48373e-010	5.73806e-010	5.77219e-010	5.77094e-010	5.92533e-010	5.62861e-010	5.82772e-010	5.61122e-010	5.87067e-010	5.89254e-010	5.69747e-010	5.76266e-010	5.83903e-010	6.22186e-010	5.77235e-010	7.5992e-012	7.26572e-012	6.80536e-012	6.55213e-012	
CoarseR89	5.14278e-010	5.29065e-010	5.69294e-010	5.62838e-010	5.65625e-010	6.03657e-010	5.50422e-010	5.95675e-010	5.66382e-010	5.89195e-010	5.87975e-010	5.7233e-010	5.75748e-010	6.01086e-010	6.01807e-010	5.86641e-010	5.76086e-010	5.79083e-010	8.39688e-012	7.8453e-012	7.58959e-012	
CoarseR90	5.62761e-010	5.50175e-010	5.75042e-010	5.772e-010	5.74114e-010	6.21396e-010	6.22486e-010	6.0024e-010	5.9392e-010	5.79587e-010	5.66373e-010	6.16559e-010	5.91169e-010	6.40023e-010	5.85778e-010	5.90148e-010	5.66996e-010	6.1279e-010	9.34109e-012	8.84197e-012	8.53737e-012	
MinCout:	-4.45442e-014	CoarseR:	81	CoarseC:	87

	FineC0	FineC10	FineC20	FineC30	FineC40	FineC50	FineC60	FineC70	FineC80	FineC90	FineC100	FineC110	FineC120	FineC130	FineC140	FineC150	FineC160	FineC170	FineC180	FineC190	FineC200	FineC210	FineC220	FineC230	FineC240	FineC250	
FineR0	4.91592e-010	4.92405e-010	4.82123e-010	5.02115e-010	5.02614e-010	5.00201e-010	4.93174e-010	4.87181e-010	4.84377e-010	4.76189e-010	4.94242e-010	4.75503e-010	4.7226e-010	4.77523e-010	-2.04783e-011	4.80071e-010	4.9392e-010	4.64145e-010	4.70926e-010	4.60098e-010	-1.96481e-011	-1.95622e-011	4.55589e-010	4.69383e-010	4.61823e-010	4.47319e-010	
FineR10	5.19062e-010	5.16846e-010	5.20526e-010	5.11992e-010	4.97092e-010	5.42754e-010	5.48497e-010	5.3536e-010	5.13337e-010	4.97208e-010	4.9178e-010	5.31915e-010	5.10663e-010	5.08493e-010	4.83569e-010	5.22706e-010	4.85277e-010	5.0223e-010	5.05047e-010	5.15808e-010	4.90073e-010	4.961e-010	4.85578e-010	5.0229e-010	4.85628e-010	4.86428e-010	
FineR20	5.3033e-010	5.26669e-010	5.1799e-010	5.31501e-010	5.40742e-010	5.3617e-010	5.33201e-010	5.16762e-010	5.15544e-010	5.10534e-010	4.88116e-010	5.31916e-010	5.4017e-010	5.00604e-010	5.12681e-010	5.26126e-010	5.45081e-010	5.11436e-010	5.18577e-010	5.12546e-010	5.22417e-010	5.20315e-010	5.16905e-010	5.03897e-010	5.07858e-010	4.99207e-010	
FineR30	5.05752e-010	5.15932e-010	5.33227e-010	5.1897e-010	5.49225e-010	5.39525e-010	5.4058e-010	5.28371e-010	5.22151e-010	5.12476e-010	5.22842e-010	5.12291e-010	5.13658e-010	5.20099e-010	5.3875e-010	5.13619e-010	5.09033e-010	5.13349e-010	5.15228e-010	5.04835e-010	5.12321e-010	5.1251e-010	5.12761e-010	5.06113e-010	5.20058e-010	5.14086e-010	
FineR40	5.31025e-010	5.2774e-010	5.22181e-010	5.20715e-010	5.29494e-010	5.40135e-010	5.21652e-010	5.1482e-010	5.14069e-010	5.09274e-010	5.13327e-010	5.32802e-010	5.14242e-010	5.18177e-010	5.29592e-010	5.08798e-010	5.19463e-010	5.17956e-010	5.28005e-010	5.01139e-010	4.90871e-010	4.96057e-010	4.89001e-010	5.10927e-010	5.02709e-010	4.86003e-010	
FineR50	5.42415e-010	5.0945e-010	5.28398e-010	5.47251e-010	5.2106e-010	5.25645e-010	5.16196e-010	5.21937e-010	5.51834e-010	5.38048e-010	5.2316e-010	5.1425e-010	5.46279e-010	5.38841e-010	5.1308e-010	5.38045e-010	5.36554e-010	5.15175e-010	4.89918e-010	5.15336e-010	5.22032e-010	5.10911e-010	5.08174e-010	5.29799e-010	5.2008e-010	5.09791e-010	
FineR60	5.42031e-010	5.17698e-010	5.21375e-010	5.33354e-010	5.22353e-010	5.1953e-010	5.13568e-010	5.43518e-010	5.29609e-010	5.33486e-010	5.20078e-010	5.4438e-010	5.42738e-010	5.33566e-010	5.31994e-010	5.38665e-010	5.05314e-010	5.13126e-010	5.33052e-010	5.12803e-010	5.10641e-010	5.30696e-010	5.19135e-010	5.46742e-010	5.24849e-010	5.29e-010	
FineR70	5.50945e-010	5.32692e-010	5.23227e-010	5.18137e-010	5.17076e-010	5.37019e-010	5.37401e-010	5.61451e-010	5.44523e-010	5.36021e-010	5.12322e-010	5.1432e-010	5.25407e-010	5.12034e-010	5.44358e-010	5.30765e-010	5.34846e-010	5.506e-010	5.20692e-010	4.9914e-010	5.26528e-010	5.35719e-010	5.30474e-010	5.12973e-010	4.89805e-010	5.16083e-010	
FineR80	5.35667e-010	5.33548e-010	5.20338e-010	5.02786e-010	5.41676e-010	5.34604e-010	5.27525e-010	5.33625e-010	5.4139e-010	5.16652e-010	5.23112e-010	5.31276e-010	5.51177e-010	5.06614e-010	5.34769e-010	5.27584e-010	5.06345e-010	5.15501e-010	5.2587e-010	5.45796e-010	5.34276e-010	5.32646e-010	5.04775e-010	5.27872e-010	5.16305e-010	5.00716e-010	
FineR90	5.23387e-010	5.18645e-010	5.14578e-010	5.26088e-010	5.03022e-010	5.4915e-010	5.22858e-010	5.25535e-010	5.1445e-010	5.40656e-010	5.40033e-010	5.48576e-010	5.39633e-010	5.43113e-010	5.421e-010	5.07415e-010	5.26077e-010	5.30676e-010	5.30435e-010	5.07533e-010	5.41912e-010	5.13942e-010	5.17384e-010	5.31085e-010	5.25424e-010	5.21449e-010	
FineR100	5.38202e-010	5.26076e-010	5.23656e-010	5.23087e-010	5.17132e-010	5.6547e-010	5.35082e-010	5.33348e-010	5.45468e-010	5.56844e-010	5.37225e-010	5.24289e-010	5.41736e-010	5.21945e-010	5.37525e-010	5.26601e-010	5.48107e-010	5.28435e-010	5.2315e-010	5.24831e-010	5.07824e-010	5.22588e-010	5.57758e-010	5.2825e-010	5.33659e-010	5.39916e-010	
FineR110	5.26548e-010	5.1001e-010	5.17248e-010	5.51298e-010	5.4915e-010	5.25492e-010	5.10911e-010	5.31613e-010	5.55157e-010	5.33411e-010	5.3582e-010	5.23909e-010	5.36749e-010	4.97869e-010	5.30942e-010	5.37254e-010	5.1139e-010	5.31148e-010	4.98838e-010	5.4916e-010	5.17233e-010	5.18726e-010	5.3141e-010	5.22454e-010	4.72291e-010	5.161e-010	
FineR120	5.26914e-010	5.39812e-010	5.14948e-010	5.16556e-010	5.4746e-010	5.26975e-010	5.46842e-010	5.23088e-010	5.56042e-010	5.47929e-010	5.59964e-010	5.09288e-010	5.22707e-010	5.27289e-010	5.22738e-010	5.45628e-010	5.45243e-010	5.23237e-010	5.47139e-010	5.34025e-010	5.10697e-010	4.98915e-010	5.17861e-010	5.39184e-010	5.15574e-010	5.33738e-010	
FineR130	5.2502e-010	5.36264e-010	5.09369e-010	5.61583e-010	5.17072e-010	5.49324e-010	5.36496e-010	5.32453e-010	5.51675e-010	5.54811e-010	5.40571e-010	5.33905e-010	5.18757e-010	5.36662e-010	5.30814e-010	5.22879e-010	5.38505e-010	5.26892e-010	5.11827e-010	5.50086e-010	5.69136e-010	5.326e-010	5.15043e-010	5.30924e-010	5.35066e-010	5.31398e-010	
FineR140	5.22391e-010	5.31696e-010	5.26659e-010	5.41639e-010	5.53775e-010	5.48833e-010	5.37344e-010	5.2442e-010	5.35969e-010	5.5887e-010	5.25828e-010	5.32689e-010	5.24664e-010	5.34691e-010	5.42825e-010	5.5809e-010	5.52282e-010	5.34732e-010	5.55228e-010	5.46019e-010	5.25696e-010	5.44005e-010	5.32837e-010	5.15946e-010	5.36135e-010	5.3422e-010	
FineR150	5.28156e-010	5.26912e-010	5.09506e-010	5.26117e-010	5.38068e-010	5.27242e-010	5.36377e-010	5.35394e-010	5.48273e-010	5.38838e-010	5.34753e-010	5.6635e-010	5.26991e-010	5.3425e-010	5.34546e-010	5.33494e-010	5.38341e-010	5.41718e-010	5.51339e-010	5.51711e-010	5.33706e-010	5.37156e-010	5.10496e-010	5.15062e-010	5.2893e-010	5.23746e-010	
FineR160	5.15072e-010	5.13864e-010	5.12236e-010	5.25232e-010	5.51711e-010	5.18498e-010	5.50623e-010	5.29232e-010	5.24764e-010	5.39698e-010	5.51516e-010	5.39979e-010	5.29907e-010	5.11225e-010	5.36899e-010	5.27654e-010	5.26026e-010	5.49601e-010	5.22004e-010	5.28905e-010	5.01178e-010	5.45078e-010	5.19912e-010	5.16927e-010	5.39511e-010	5.26715e-010	
FineR170	5.51773e-010	5.29033e-010	5.17047e-010	5.27475e-010	5.69245e-010	5.49297e-010	5.46142e-010	5.28514e-010	5.41013e-010	5.24549e-010	5.37894e-010	5.33252e-010	5.25519e-010	5.65023e-010	5.26455e-010	5.34262e-010	5.1843e-010	5.23353e-010	5.25718e-010	5.29543e-010	5.28378e-010	5.335e-010	5.44972e-010	5.20297e-010	5.20207e-010	5.13915e-010	
FineR180	5.49824e-010	5.18493e-010	5.29865e-010	5.61496e-010	5.59329e-010	5.25954e-010	5.28966e-010	5.15688e-010	5.25417e-010	5.2764e-010	5.42086e-010	5.32674e-010	5.40933e-010	5.46734e-010	5.23158e-010	5.26458e-010	5.43983e-010	5.36139e-010	5.32007e-010	5.12461e-010	5.36247e-010	5.40513e-010	5.38401e-010	5.21565e-010	5.24301e-010	5.56007e-010	
FineR190	5.33947e-010	5.26732e-010	5.11236e-010	5.15056e-010	5.16788e-010	5.37346e-010	5.20513e-010	5.4486e-010	5.43443e-010	5.19285e-010	5.4058e-010	5.33329e-010	5.3303e-010	5.20419e-010	5.32389e-010	5.50585e-010	5.40719e-010	5.45615e-010	5.38868e-010	5.43546e-010	5.42323e-010	5.26198e-010	5.49539e-010	5.19432e-010	5.48043e-010	5.24595e-010	
FineR200	5.27729e-010	5.09805e-010	5.25446e-010	5.41063e-010	5.27436e-010	5.41135e-010	5.39653e-010	5.33731e-010	5.19718e-010	5.33261e-010	5.46432e-010	5.43353e-010	5.4954e-010	5.29423e-010	5.25836e-010	5.39674e-010	5.14595e-010	5.32873e-010	5.54974e-010	5.41657e-010	5.30883e-010	5.27876e-010	5.23712e-010	5.27371e-010	5.17238e-010	5.20577e-010	
FineR210	5.28388e-010	5.17042e-010	5.37685e-010	5.30236e-010	5.44535e-010	5.38414e-010	5.63563e-010	5.25533e-010	5.55301e-010	5.77822e-010	5.32688e-010	5.34521e-010	5.19998e-010	5.34509e-010	5.25537e-010	5.1612e-010	5.2493e-010	5.30743e-010	5.49167e-010	5.36253e-010	5.16431e-010	5.47465e-010	5.20173e-010	5.22765e-010	5.25158e-010	5.35724e-010	
FineR220	5.46154e-010	5.27284e-010	5.17097e-010	5.13857e-010	5.44945e-010	5.31587e-010	5.55936e-010	5.48744e-010	5.2369e-010	5.70404e-010	5.61276e-010	5.45197e-010	5.21834e-010	5.34752e-010	5.40215e-010	5.27528e-010	5.38295e-010	5.34511e-010	5.49556e-010	5.46797e-010	5.27378e-010	5.06029e-010	5.24377e-010	5.23702e-010	5.21851e-010	5.18388e-010	
FineR230	5.40764e-010	5.16905e-010	5.35937e-010	5.37567e-010	5.42979e-010	5.39759e-010	5.25552e-010	5.38386e-010	5.41099e-010	5.64908e-010	5.57874e-010	5.51509e-010	5.12918e-010	4.99574e-010	5.41155e-010	5.30796e-010	5.25475e-010	5.26409e-010	5.41496e-010	5.28009e-010	5.29304e-010	5.23844e-010	5.264e-010	5.58241e-010	5.25642e-010	5.39658e-010	
FineR240	5.20791e-010	5.1785e-010	5.38853e-010	5.385e-010	5.24166e-010	5.45568e-010	5.29105e-010	5.50541e-010	5.44278e-010	5.21517e-010	5.49991e-010	5.51449e-010	5.23573e-010	5.56476e-010	5.40325e-010	5.43731e-010	5.2517e-010	5.29544e-010	5.15418e-010	5.19533e-010	5.27128e-010	5.18736e-010	5.31921e-010	5.42569e-010	5.3873e-010	5.04787e-010	
FineR250	5.73448e-010	5.29951e-010	5.29113e-010	5.28583e-010	5.28449e-010	5.64623e-010	5.47154e-010	5.42759e-010	5.30319e-010	5.64961e-010	5.42972e-010	5.53857e-010	5.4752e-010	5.33106e-010	5.26547e-010	5.39041e-010	5.64205e-010	5.29853e-010	5.47826e-010	5.34444e-010	5.42836e-010	5.21005e-010	5.50966e-010	5.32439e-010	5.33322e-010	5.28247e-010	
MinCout:	-1.95622e-011	FineR:	0	FineC:	210

	FineC200	FineC201	FineC202	FineC203	FineC204	FineC205	FineC206	FineC207	FineC208	FineC209	FineC210	FineC211	FineC212	FineC213	FineC214	FineC215	FineC216	FineC217	FineC218	FineC219	FineC220	
FineR0	4.73732e-010	4.69171e-010	4.85075e-010	4.91261e-010	4.80578e-010	4.67157e-010	4.76204e-010	4.57937e-010	4.7948e-010	4.86411e-010	4.80942e-010	4.68805e-010	4.7622e-010	4.74972e-010	4.80707e-010	4.68034e-010	4.5961e-010	4.84966e-010	4.60742e-010	4.6976e-010	4.84838e-010	
FineR1	4.59352e-010	4.70011e-010	4.81449e-010	4.65352e-010	4.8562e-010	4.7124e-010	4.60963e-010	5.02817e-010	4.72954e-010	4.70645e-010	4.59713e-010	4.79391e-010	4.74848e-010	4.77624e-010	4.70402e-010	4.8627e-010	4.89562e-010	4.59195e-010	4.67833e-010	4.99153e-010	4.66086e-010	
FineR2	4.7246e-010	4.8586e-010	4.56129e-010	4.81434e-010	4.86573e-010	4.78114e-010	4.75222e-010	4.69984e-010	4.7835e-010	4.62612e-010	4.8432e-010	4.84132e-010	4.91568e-010	4.74951e-010	4.81692e-010	4.66473e-010	4.68371e-010	4.66117e-010	4.75717e-010	4.75272e-010	4.64342e-010	
FineR3	4.75064e-010	4.66594e-010	4.65522e-010	4.76714e-010	4.92489e-010	4.7636e-010	4.71738e-010	4.94553e-010	4.81369e-010	4.71324e-010	4.67333e-010	4.68961e-010	4.51089e-010	4.7496e-010	4.64624e-010	4.734e-010	4.65627e-010	4.95454e-010	4.6416e-010	4.65449e-010	4.49848e-010	
FineR4	4.51946e-010	4.75673e-010	4.62021e-010	4.58889e-010	4.92547e-010	4.90206e-010	4.91236e-010	4.6654e-010	4.80519e-010	4.63761e-010	4.94459e-010	4.50516e-010	4.88469e-010	4.75292e-010	5.03725e-010	4.7193e-010	4.83841e-010	4.90762e-010	4.97007e-010	4.96847e-010	4.65018e-010	
FineR5	4.78988e-010	4.92805e-010	4.70879e-010	4.8044e-010	5.06579e-010	4.80421e-010	4.94286e-010	4.90588e-010	4.85922e-010	4.87086e-010	4.7224e-010	4.88496e-010	4.9187e-010	4.63151e-010	4.68089e-010	4.73799e-010	4.88778e-010	4.75493e-010	4.88721e-010	5.02016e-010	4.81482e-010	
FineR6	4.75662e-010	4.84665e-010	4.70703e-010	5.01573e-010	4.80315e-010	4.70909e-010	4.8742e-010	4.91364e-010	4.72577e-010	4.846e-010	4.85565e-010	4.88655e-010	4.93855e-010	4.63588e-010	4.95625e-010	5.03501e-010	4.92258e-010	4.89904e-010	4.98156e-010	4.93776e-010	4.81506e-010	
FineR7	4.96447e-010	4.89589e-010	4.83243e-010	4.83474e-010	4.8699e-010	4.74561e-010	4.77079e-010	5.02521e-010	5.04482e-010	4.91822e-010	4.75719e-010	4.90782e-010	4.96133e-010	4.88099e-010	4.70016e-010	4.82592e-010	4.79991e-010	4.89182e-010	4.75461e-010	4.87182e-010	4.85944e-010	
FineR8	4.80681e-010	4.6821e-010	4.77338e-010	4.75873e-010	4.95246e-010	4.90499e-010	5.13333e-010	4.98375e-010	4.79889e-010	4.82248e-010	4.87612e-010	4.94446e-010	5.04898e-010	4.79462e-010	5.01241e-010	4.98126e-010	4.71197e-010	4.87653e-010	4.86331e-010	4.8117e-010	4.85796e-010	
FineR9	4.84363e-010	4.95604e-010	5.0121e-010	4.86794e-010	4.77385e-010	4.88316e-010	4.8965e-010	4.78063e-010	4.75134e-010	4.9325e-010	5.07294e-010	4.95595e-010	4.91239e-010	4.84612e-010	4.92213e-010	4.75931e-010	4.79152e-010	5.26002e-010	4.85408e-010	5.02609e-010	4.7483e-010	
FineR10	4.99594e-010	5.02534e-010	5.0683e-010	4.89506e-010	5.07593e-010	5.04672e-010	5.19714e-010	5.25515e-010	4.96541e-010	5.01527e-010	5.05055e-010	5.03291e-010	5.15292e-010	4.9495e-010	4.81192e-010	4.8529e-010	4.8803e-010	5.15035e-010	4.97309e-010	4.77571e-010	5.02674e-010	
FineR11	5.13056e-010	4.77008e-010	4.98083e-010	4.91758e-010	5.01813e-010	5.02205e-010	4.91305e-010	4.89374e-010	4.83385e-010	4.95028e-010	5.07848e-010	5.05874e-010	5.14771e-010	4.83618e-010	4.8675e-010	4.90232e-010	5.09221e-010	4.73696e-010	5.0266e-010	5.01664e-010	4.9485e-010	
FineR12	5.07886e-010	5.16854e-010	4.98746e-010	5.16075e-010	5.06282e-010	5.05608e-010	5.0915e-010	4.99224e-010	5.08229e-010	5.01761e-010	5.00297e-010	4.95978e-010	4.84819e-010	4.92915e-010	4.97001e-010	4.96303e-010	4.92656e-010	4.87018e-010	4.90059e-010	5.12065e-010	5.16494e-010	
FineR13	5.1441e-010	4.79379e-010	4.75568e-010	4.91296e-010	4.98614e-010	4.92923e-010	5.05638e-010	5.00793e-010	5.07121e-010	4.88856e-010	4.96901e-010	5.04492e-010	5.04633e-010	5.01214e-010	4.99082e-010	5.06976e-010	5.28151e-010	5.22432e-010	4.87257e-010	5.19739e-010	5.04269e-010	
FineR14	4.87648e-010	5.04208e-010	4.95585e-010	4.99933e-010	4.98984e-010	4.98929e-010	4.98815e-010	5.19196e-010	4.71428e-010	5.22796e-010	5.08031e-010	4.96261e-010	5.23266e-010	5.12698e-010	5.16678e-010	5.0655e-010	4.87394e-010	4.96963e-010	5.16059e-010	5.11298e-010	4.95812e-010	
FineR15	5.18666e-010	5.11214e-010	5.01486e-010	4.81675e-010	5.34504e-010	4.97327e-010	5.05529e-010	5.31382e-010	5.05468e-010	4.98613e-010	5.2191e-010	4.99425e-010	5.02759e-010	5.00026e-010	5.16053e-010	5.07451e-010	4.79184e-010	4.93475e-010	4.95479e-010	5.18263e-010	5.00914e-010	
FineR16	5.03106e-010	5.29511e-010	4.97359e-010	5.23756e-010	5.00596e-010	4.91881e-010	5.10015e-010	5.08231e-010	5.10057e-010	5.16061e-010	5.24907e-010	5.17113e-010	5.10558e-010	4.94964e-010	5.04538e-010	5.01668e-010	5.13641e-010	5.09557e-010	5.21916e-010	4.89229e-010	5.08016e-010	
FineR17	4.97938e-010	4.85805e-010	5.36583e-010	5.28963e-010	5.20738e-010	5.52816e-010	5.2607e-010	5.02771e-010	4.83979e-010	5.07999e-010	4.87608e-010	5.19552e-010	4.99771e-010	5.36278e-010	5.2062e-010	4.79029e-010	4.87239e-010	4.88566e-010	5.23066e-010	4.88531e-010	5.05516e-010	
FineR18	5.25865e-010	5.17064e-010	4.98318e-010	4.98102e-010	5.1962e-010	5.0217e-010	5.02981e-010	5.20101e-010	4.96162e-010	5.0847e-010	5.35477e-010	5.19456e-010	5.09788e-010	4.7985e-010	5.1169e-010	5.01798e-010	4.9643e-010	4.92542e-010	4.89832e-010	5.13363e-010	5.02735e-010	
FineR19	4.95839e-010	5.11569e-010	4.96774e-010	5.22122e-010	5.05601e-010	5.14819e-010	5.09638e-010	5.36244e-010	5.21593e-010	5.08331e-010	5.15079e-010	5.00923e-010	5.13974e-010	5.09211e-010	5.19936e-010	5.13596e-010	4.94198e-010	5.04522e-010	5.21874e-010	5.11449e-010	4.99702e-010	
FineR20	5.2996e-010	5.16316e-010	5.02148e-010	5.20685e-010	5.00774e-010	5.08272e-010	5.05857e-010	5.12944e-010	5.29765e-010	5.29064e-010	5.27374e-010	5.00859e-010	5.21502e-010	5.22618e-010	5.15409e-010	5.01061e-010	5.3058e-010	5.09903e-010	5.07508e-010	4.9891e-010	5.22804e-010	
MinCout:	4.49848e-010	FineR:	3	FineC:	220

