	CoarseC0	CoarseC10	CoarseC20	CoarseC30	CoarseC40	CoarseC50	CoarseC60	CoarseC70	CoarseC80	CoarseC90	CoarseC100	CoarseC110	CoarseC120	CoarseC130	CoarseC140	CoarseC150	CoarseC160	CoarseC170	CoarseC180	CoarseC190	CoarseC200	CoarseC210	CoarseC220	CoarseC230	CoarseC240	CoarseC250	
CoarseR0	4.81835e-010	4.59165e-010	-2.76486e-010	-2.69278e-010	-2.63998e-010	-2.59882e-010	-2.56886e-010	-2.5448e-010	-2.52651e-010	-2.51228e-010	-2.49688e-010	-2.49398e-010	-2.49039e-010	-2.49423e-010	-2.49905e-010	-2.51011e-010	-2.51946e-010	-2.52343e-010	-2.52323e-010	-2.52126e-010	-2.51391e-010	-2.50524e-010	-2.49317e-010	-2.47827e-010	-2.46182e-010	-2.44743e-010	
CoarseR10	4.91513e-010	4.97313e-010	5.31771e-010	-1.99359e-010	-1.94849e-010	-1.91391e-010	-1.89297e-010	-1.88474e-010	-1.88151e-010	-1.8808e-010	-1.88799e-010	-1.90682e-010	-1.92667e-010	-1.9505e-010	-1.96882e-010	-1.98639e-010	-2.00139e-010	-2.01208e-010	-2.01906e-010	-2.02592e-010	-2.02934e-010	-2.03463e-010	-2.03592e-010	-2.03417e-010	-2.0267e-010	-2.0212e-010	
CoarseR20	4.57547e-010	4.78306e-010	4.7064e-010	-1.44241e-010	-1.41298e-010	-1.39607e-010	-1.38844e-010	-1.38629e-010	-1.39759e-010	-1.42164e-010	-1.44927e-010	-1.47876e-010	-1.50448e-010	-1.53299e-010	-1.5573e-010	-1.58071e-010	-1.60292e-010	-1.6224e-010	-1.64469e-010	-1.66577e-010	-1.67959e-010	-1.69156e-010	-1.70004e-010	-1.70549e-010	-1.70599e-010	-1.70891e-010	
CoarseR30	4.38372e-010	4.79835e-010	4.55961e-010	4.56445e-010	-1.00056e-010	-9.89266e-011	-9.9264e-011	-1.01329e-010	-1.04015e-010	-1.06846e-010	-1.09821e-010	-1.13048e-010	-1.15977e-010	-1.19412e-010	-1.2257e-010	-1.25978e-010	-1.30057e-010	-1.33508e-010	-1.36477e-010	-1.392e-010	-1.41125e-010	-1.43033e-010	-1.44861e-010	-1.4634e-010	-1.4723e-010	-1.48222e-010	
CoarseR40	4.47375e-010	4.60993e-010	4.39763e-010	4.76868e-010	4.71667e-010	-6.83246e-011	-7.02256e-011	-7.25286e-011	-7.52644e-011	-7.82339e-011	-8.14909e-011	-8.51087e-011	-8.85308e-011	-9.26955e-011	-9.74224e-011	-1.02522e-010	-1.07148e-010	-1.11095e-010	-1.14549e-010	-1.17933e-010	-1.20916e-010	-1.23741e-010	-1.26152e-010	-1.27911e-010	-1.2908e-010	-1.30282e-010	
CoarseR50	4.39628e-010	4.306e-010	4.79038e-010	4.8963e-010	5.1075e-010	4.98712e-010	5.25758e-010	-4.88468e-011	-5.16574e-011	-5.47851e-011	-5.84376e-011	-6.25562e-011	-6.67015e-011	-7.28141e-011	-7.84164e-011	-8.38051e-011	-8.87051e-011	-9.29889e-011	-9.72797e-011	-1.01715e-010	-1.05172e-010	-1.08091e-010	-1.10703e-010	-1.12705e-010	-1.13951e-010	-1.15288e-010	
CoarseR60	4.283e-010	4.3064e-010	4.65927e-010	4.77959e-010	5.06425e-010	5.2911e-010	5.54119e-010	5.2043e-010	-3.2279e-011	-3.55262e-011	-3.93524e-011	-4.43122e-011	-5.04306e-011	-5.70838e-011	-6.28653e-011	-6.84661e-011	-7.37926e-011	-7.89224e-011	-8.3891e-011	-8.82979e-011	-9.17766e-011	-9.49208e-011	-9.76515e-011	-9.96543e-011	-1.01076e-010	-1.02669e-010	
CoarseR70	4.22005e-010	4.27432e-010	4.50194e-010	4.91663e-010	4.70343e-010	5.36197e-010	5.19108e-010	5.7169e-010	5.43244e-010	-1.96935e-011	-2.39903e-011	-3.05301e-011	-3.71158e-011	-4.39016e-011	-4.99127e-011	-5.58013e-011	-6.19042e-011	-6.74104e-011	-7.23015e-011	-7.68563e-011	-8.04043e-011	-8.35375e-011	-8.63078e-011	-8.84623e-011	-9.00887e-011	-9.16992e-011	
CoarseR80	4.14261e-010	4.43759e-010	4.97954e-010	5.12505e-010	5.12124e-010	5.28857e-010	5.60932e-010	5.55033e-010	5.63446e-010	5.83635e-010	-1.21515e-011	-1.94462e-011	-2.59468e-011	-3.27773e-011	-3.89785e-011	-4.54445e-011	-5.1956e-011	-5.7547e-011	-6.24093e-011	-6.69648e-011	-7.04843e-011	-7.3689e-011	-7.66039e-011	-7.88526e-011	-8.04996e-011	-8.23083e-011	
CoarseR90	4.2506e-010	4.494e-010	4.70561e-010	5.25972e-010	5.52148e-010	5.78105e-010	5.93598e-010	6.47071e-010	7.08624e-010	6.52178e-010	7.24273e-010	-9.93817e-012	-1.63835e-011	-2.3296e-011	-2.97694e-011	-3.68217e-011	-4.33023e-011	-4.88449e-011	-5.37035e-011	-5.82299e-011	-6.18601e-011	-6.50841e-011	-6.81069e-011	-7.03976e-011	-7.21202e-011	-7.40001e-011	
CoarseR100	4.36905e-010	5.12802e-010	5.16038e-010	5.32551e-010	5.60783e-010	5.73875e-010	6.22486e-010	6.06801e-010	6.24133e-010	6.23925e-010	6.48785e-010	6.08926e-010	-8.19959e-012	-1.50873e-011	-2.19304e-011	-2.903e-011	-3.55068e-011	-4.10376e-011	-4.59733e-011	-5.06316e-011	-5.42782e-011	-5.76057e-011	-6.06761e-011	-6.30886e-011	-6.49208e-011	-6.68602e-011	
CoarseR110	4.41544e-010	5.2698e-010	5.57814e-010	5.74581e-010	5.83615e-010	5.91155e-010	5.93133e-010	6.23895e-010	6.36694e-010	6.48185e-010	5.8515e-010	5.54386e-010	-1.17475e-012	-8.13264e-012	-1.5176e-011	-2.22606e-011	-2.87337e-011	-3.41839e-011	-3.91376e-011	-4.38157e-011	-4.76688e-011	-5.10427e-011	-5.41352e-011	-5.66412e-011	-5.858e-011	-6.06265e-011	
CoarseR120	4.54499e-010	5.30659e-010	5.4536e-010	5.69319e-010	5.69111e-010	5.59881e-010	5.70376e-010	5.52954e-010	5.95027e-010	5.79936e-010	5.40871e-010	5.74168e-010	4.92601e-012	-2.05071e-012	-9.18617e-012	-1.62343e-011	-2.27858e-011	-2.81865e-011	-3.32109e-011	-3.79068e-011	-4.17256e-011	-4.5239e-011	-4.85664e-011	-5.10732e-011	-5.31151e-011	-5.51956e-011	
CoarseR130	4.48924e-010	5.11109e-010	4.90664e-010	5.22837e-010	5.2269e-010	5.36202e-010	5.40409e-010	5.80185e-010	5.51123e-010	5.80496e-010	5.78051e-010	6.13695e-010	1.02023e-011	3.32114e-012	-3.81612e-012	-1.09061e-011	-1.72941e-011	-2.28212e-011	-2.79584e-011	-3.26991e-011	-3.65699e-011	-4.01832e-011	-4.3555e-011	-4.62202e-011	-4.82833e-011	-5.04972e-011	
CoarseR140	4.49843e-010	4.73043e-010	4.64454e-010	4.76052e-010	4.87977e-010	4.94328e-010	4.99919e-010	4.87561e-010	5.61875e-010	5.61007e-010	6.21288e-010	6.23706e-010	1.47692e-011	7.92372e-012	8.77254e-013	-6.13853e-012	-1.26755e-011	-1.81621e-011	-2.33109e-011	-2.81802e-011	-3.21828e-011	-3.57768e-011	-3.91747e-011	-4.19426e-011	-4.41453e-011	-4.6409e-011	
CoarseR150	4.2945e-010	4.19442e-010	4.40435e-010	4.74166e-010	4.59902e-010	4.95566e-010	5.26155e-010	5.60509e-010	5.74146e-010	5.59655e-010	6.10094e-010	5.87398e-010	1.86308e-011	1.19188e-011	4.98692e-012	-2.0592e-012	-8.56662e-012	-1.41723e-011	-1.93084e-011	-2.42919e-011	-2.83161e-011	-3.19872e-011	-3.54718e-011	-3.8319e-011	-4.05247e-011	-4.29802e-011	
CoarseR160	3.73081e-010	4.13858e-010	4.20449e-010	4.51997e-010	4.84842e-010	5.78111e-010	5.9704e-010	5.91037e-010	6.03537e-010	6.28994e-010	5.98461e-010	6.24251e-010	2.19891e-011	1.5336e-011	8.50526e-012	1.42757e-012	-5.17783e-012	-1.08764e-011	-1.60962e-011	-2.10293e-011	-2.51469e-011	-2.88578e-011	-3.2524e-011	-3.53819e-011	-3.76115e-011	-3.99628e-011	
CoarseR170	3.65719e-010	4.07911e-010	4.37652e-010	4.73899e-010	5.04346e-010	5.80622e-010	5.67748e-010	6.27973e-010	6.10975e-010	6.29782e-010	5.75454e-010	5.83687e-010	2.46918e-011	1.80454e-011	1.14978e-011	4.3841e-012	-2.29044e-012	-8.08876e-012	-1.33267e-011	-1.83382e-011	-2.24148e-011	-2.62818e-011	-2.99143e-011	-3.29742e-011	-3.5255e-011	-3.77826e-011	
CoarseR180	3.60011e-010	3.88593e-010	4.62366e-010	5.26059e-010	5.8703e-010	5.60639e-010	6.01319e-010	6.22082e-010	5.85682e-010	5.76289e-010	5.88452e-010	6.06263e-010	2.67736e-011	2.02662e-011	1.38851e-011	6.81414e-012	2.11268e-013	-5.66892e-012	-1.09819e-011	-1.61282e-011	-2.04383e-011	-2.41903e-011	-2.79278e-011	-3.10024e-011	-3.33542e-011	-3.59307e-011	
CoarseR190	3.58792e-010	4.16408e-010	4.91653e-010	5.15135e-010	5.33112e-010	5.44032e-010	5.88848e-010	5.63819e-010	5.94009e-010	5.79891e-010	5.65011e-010	3.42375e-011	2.8476e-011	2.19968e-011	1.57833e-011	8.85366e-012	2.1469e-012	-3.74556e-012	-9.29202e-012	-1.43657e-011	-1.87133e-011	-2.27084e-011	-2.64178e-011	-2.9469e-011	-3.19552e-011	-3.46249e-011	
CoarseR200	3.84162e-010	4.55664e-010	5.16663e-010	5.45602e-010	5.48161e-010	5.77325e-010	6.11057e-010	5.94671e-010	5.49367e-010	5.93573e-010	5.56509e-010	3.54926e-011	2.96981e-011	2.32701e-011	1.71064e-011	1.04144e-011	3.61191e-012	-2.37164e-012	-7.90146e-012	-1.32223e-011	-1.7571e-011	-2.15383e-011	-2.53545e-011	-2.84407e-011	-3.08988e-011	-3.35844e-011	
CoarseR210	4.01815e-010	4.5262e-010	4.77382e-010	5.27646e-010	5.23033e-010	5.83163e-010	5.5985e-010	5.881e-010	5.62796e-010	5.64553e-010	5.49611e-010	3.64019e-011	3.04324e-011	2.41342e-011	1.80229e-011	1.15287e-011	4.66786e-012	-1.39708e-012	-6.95948e-012	-1.22622e-011	-1.66955e-011	-2.07919e-011	-2.4574e-011	-2.77622e-011	-3.02695e-011	-3.29629e-011	
CoarseR220	4.06307e-010	4.6926e-010	4.90726e-010	5.59395e-010	5.36255e-010	5.64043e-010	5.7262e-010	5.78814e-010	5.50719e-010	5.51988e-010	5.37219e-010	3.68784e-011	3.10257e-011	2.46201e-011	1.85984e-011	1.22742e-011	5.45375e-012	-6.53178e-013	-6.31766e-012	-1.16738e-011	-1.62034e-011	-2.02225e-011	-2.41905e-011	-2.74229e-011	-2.9998e-011	-3.26869e-011	
CoarseR230	4.07793e-010	4.84975e-010	4.91543e-010	5.21083e-010	5.32694e-010	5.62411e-010	5.77465e-010	5.27995e-010	5.65164e-010	5.53056e-010	5.68399e-010	3.70622e-011	3.12896e-011	2.48424e-011	1.88539e-011	1.26175e-011	5.90439e-012	-2.88089e-013	-5.9634e-012	-1.14149e-011	-1.59173e-011	-2.00854e-011	-2.39358e-011	-2.73056e-011	-2.9804e-011	-3.26013e-011	
CoarseR240	4.52508e-010	4.65359e-010	5.04752e-010	4.95773e-010	5.45585e-010	5.05767e-010	5.31619e-010	5.38231e-010	5.55678e-010	5.57214e-010	5.75061e-010	3.72117e-011	3.135e-011	2.49621e-011	1.8876e-011	1.27165e-011	6.09987e-012	-7.60471e-014	-5.83439e-012	-1.13157e-011	-1.58529e-011	-2.00823e-011	-2.39908e-011	-2.72594e-011	-2.99758e-011	-3.27296e-011	
CoarseR250	4.29836e-010	4.55139e-010	4.9743e-010	4.82756e-010	5.22133e-010	5.26094e-010	5.41112e-010	5.6579e-010	5.64874e-010	5.83288e-010	5.75881e-010	3.7114e-011	3.12321e-011	2.4847e-011	1.87748e-011	1.26202e-011	6.06449e-012	-9.24476e-014	-5.88516e-012	-1.13639e-011	-1.59836e-011	-2.01852e-011	-2.42504e-011	-2.75119e-011	-3.00966e-011	-3.29322e-011	
MinCout:	-7.60471e-014	CoarseR:	240	CoarseC:	170

	CoarseC110	CoarseC111	CoarseC112	CoarseC113	CoarseC114	CoarseC115	CoarseC116	CoarseC117	CoarseC118	CoarseC119	CoarseC120	CoarseC121	CoarseC122	CoarseC123	CoarseC124	CoarseC125	CoarseC126	CoarseC127	CoarseC128	CoarseC129	CoarseC130	
CoarseR110	5.89243e-010	5.75307e-010	6.13103e-010	5.64513e-010	5.9248e-010	1.81081e-012	1.09588e-012	5.46226e-013	-3.37318e-013	-8.35104e-013	-1.46847e-012	-2.09955e-012	-2.89233e-012	-3.39079e-012	-4.07916e-012	-4.73792e-012	-5.5011e-012	-5.96275e-012	-6.71419e-012	-7.74819e-012	-8.21693e-012	
CoarseR111	5.52224e-010	5.70252e-010	5.72164e-010	5.79363e-010	5.65352e-010	2.43745e-012	1.75874e-012	1.20817e-012	3.68576e-013	-2.41334e-013	-8.53468e-013	-1.44849e-012	-2.27858e-012	-2.77035e-012	-3.42841e-012	-4.05243e-012	-4.85291e-012	-5.39434e-012	-6.06747e-012	-7.09979e-012	-7.56361e-012	
CoarseR112	5.70385e-010	5.61242e-010	5.45713e-010	5.6165e-010	5.6917e-010	6.13076e-010	2.42234e-012	1.87166e-012	1.02293e-012	4.07378e-013	-1.85526e-013	-8.29971e-013	-1.59006e-012	-2.14791e-012	-2.80043e-012	-3.4033e-012	-4.20262e-012	-4.70037e-012	-5.42746e-012	-6.40644e-012	-6.93148e-012	
CoarseR113	5.69818e-010	5.51588e-010	5.63372e-010	5.42335e-010	5.55872e-010	5.47597e-010	3.04184e-012	2.49022e-012	1.68348e-012	1.06626e-012	4.73654e-013	-2.39249e-013	-9.94633e-013	-1.49651e-012	-2.20178e-012	-2.81875e-012	-3.58131e-012	-4.08993e-012	-4.80752e-012	-5.80288e-012	-6.3121e-012	
CoarseR114	5.48927e-010	5.8042e-010	5.602e-010	5.56159e-010	5.3048e-010	5.34769e-010	3.64591e-012	3.12264e-012	2.26495e-012	1.63998e-012	1.04589e-012	3.7773e-013	-4.11172e-013	-8.84344e-013	-1.54447e-012	-2.17105e-012	-2.91751e-012	-3.43179e-012	-4.15255e-012	-5.18497e-012	-5.74395e-012	
CoarseR115	5.51507e-010	5.37855e-010	5.44515e-010	5.72485e-010	5.37814e-010	5.27131e-010	5.02469e-010	3.72114e-012	2.94224e-012	2.34562e-012	1.69834e-012	1.02932e-012	1.61423e-013	-2.91226e-013	-1.0102e-012	-1.54987e-012	-2.3129e-012	-2.85868e-012	-3.57591e-012	-4.5788e-012	-5.13351e-012	
CoarseR116	5.6903e-010	5.59767e-010	5.36801e-010	5.65331e-010	5.25795e-010	5.79992e-010	5.5132e-010	4.31046e-012	3.4886e-012	2.93288e-012	2.33056e-012	1.64428e-012	8.13278e-013	2.81162e-013	-4.18218e-013	-9.86596e-013	-1.74214e-012	-2.29498e-012	-2.96315e-012	-3.95842e-012	-4.47659e-012	
CoarseR117	5.66866e-010	5.59157e-010	5.23277e-010	5.72858e-010	5.14469e-010	5.40509e-010	5.35995e-010	4.76591e-012	4.08199e-012	3.49153e-012	2.88374e-012	2.23126e-012	1.39149e-012	8.95791e-013	2.41652e-013	-3.94952e-013	-1.16613e-012	-1.67504e-012	-2.36789e-012	-3.38359e-012	-3.94409e-012	
CoarseR118	5.73059e-010	5.38727e-010	5.35297e-010	5.35474e-010	5.52783e-010	5.36996e-010	5.69697e-010	5.67456e-010	4.62989e-012	4.08044e-012	3.46348e-012	2.86282e-012	2.04494e-012	1.51168e-012	8.11332e-013	2.27535e-013	-5.73101e-013	-1.10592e-012	-1.79633e-012	-2.78664e-012	-3.30297e-012	
CoarseR119	5.46464e-010	5.6665e-010	5.19468e-010	5.2455e-010	5.56292e-010	5.68998e-010	5.56852e-010	5.59525e-010	4.96276e-010	4.57288e-012	4.10195e-012	3.40506e-012	2.60274e-012	2.08216e-012	1.3822e-012	7.88964e-013	-1.18068e-014	-5.14302e-013	-1.21961e-012	-2.2146e-012	-2.73423e-012	
CoarseR120	5.63242e-010	5.45373e-010	5.23321e-010	5.6696e-010	5.68081e-010	5.7462e-010	5.54719e-010	5.14646e-010	5.60524e-010	5.11703e-012	4.51215e-012	3.95631e-012	3.1459e-012	2.68233e-012	1.94453e-012	1.32238e-012	5.58525e-013	1.06309e-014	-6.75814e-013	-1.64039e-012	-2.12346e-012	
CoarseR121	5.40376e-010	5.54948e-010	5.48352e-010	5.66758e-010	5.89047e-010	5.67918e-010	5.48987e-010	5.80131e-010	5.30794e-010	5.18223e-010	5.10164e-012	4.41151e-012	3.77615e-012	3.26219e-012	2.55637e-012	1.94277e-012	1.16297e-012	6.22385e-013	-1.43234e-013	-1.09213e-012	-1.59125e-012	
CoarseR122	5.16671e-010	5.48473e-010	5.64768e-010	5.19307e-010	5.78019e-010	5.43973e-010	5.06651e-010	5.52257e-010	5.54595e-010	6.21579e-012	5.64639e-012	4.95542e-012	4.31187e-012	3.80534e-012	3.14084e-012	2.5296e-012	1.7416e-012	1.18458e-012	4.27534e-013	-5.67026e-013	-1.04313e-012	
CoarseR123	5.73762e-010	5.56902e-010	5.28826e-010	5.70068e-010	5.45529e-010	5.7116e-010	5.74731e-010	5.42284e-010	5.66799e-010	5.71791e-010	6.18323e-012	5.57837e-012	4.73061e-012	4.34938e-012	3.6677e-012	3.06377e-012	2.29156e-012	1.79181e-012	1.02647e-012	2.42225e-014	-5.17174e-013	
CoarseR124	5.96526e-010	5.84876e-010	5.07536e-010	5.31339e-010	5.49576e-010	5.55635e-010	5.50572e-010	5.33626e-010	5.61051e-010	7.34911e-012	6.7336e-012	6.06946e-012	5.27543e-012	4.84797e-012	4.16579e-012	3.60367e-012	2.82655e-012	2.31322e-012	1.63037e-012	6.08179e-013	4.47179e-014	
CoarseR125	5.65044e-010	5.40345e-010	5.25558e-010	5.37918e-010	5.36532e-010	5.78714e-010	5.48067e-010	6.06883e-010	5.39204e-010	5.48074e-010	7.23384e-012	6.58233e-012	5.77141e-012	5.27191e-012	4.70644e-012	4.06493e-012	3.32075e-012	2.84456e-012	2.14844e-012	1.1674e-012	5.95575e-013	
CoarseR126	5.4523e-010	5.2086e-010	5.48623e-010	5.38767e-010	5.06204e-010	5.68243e-010	5.53503e-010	5.40311e-010	5.53319e-010	5.41251e-010	6.23254e-010	7.12781e-012	6.27999e-012	5.80444e-012	5.13006e-012	4.60504e-012	3.86959e-012	3.33899e-012	2.63772e-012	1.68185e-012	1.13445e-012	
CoarseR127	5.82969e-010	5.54148e-010	5.59675e-010	5.37324e-010	5.6833e-010	5.89252e-010	5.69682e-010	6.24663e-010	5.89444e-010	7.63402e-012	8.27342e-012	7.57881e-012	6.77618e-012	6.3092e-012	5.62094e-012	5.01503e-012	4.40155e-012	3.83673e-012	3.16069e-012	2.22126e-012	1.68239e-012	
CoarseR128	5.51793e-010	5.38507e-010	5.79546e-010	5.49838e-010	6.09262e-010	5.95391e-010	6.28354e-010	6.0151e-010	8.70556e-012	8.16817e-012	7.52839e-012	8.16129e-012	7.35013e-012	6.84569e-012	6.12012e-012	5.55533e-012	4.76928e-012	4.41327e-012	3.6663e-012	2.70274e-012	2.17971e-012	
CoarseR129	6.09214e-010	5.2068e-010	5.52009e-010	5.81467e-010	5.76734e-010	5.84466e-010	6.23702e-010	9.79974e-012	9.042e-012	8.59597e-012	8.05641e-012	8.69959e-012	7.81008e-012	7.29656e-012	6.62112e-012	6.00531e-012	5.26982e-012	4.74561e-012	4.12431e-012	3.20205e-012	2.66569e-012	
CoarseR130	5.54345e-010	6.16344e-010	5.63821e-010	6.31206e-010	6.17037e-010	6.19771e-010	1.08395e-011	5.88585e-010	9.49007e-012	9.04333e-012	8.51192e-012	7.84276e-012	8.31149e-012	7.79267e-012	7.11687e-012	6.53775e-012	5.75664e-012	5.27763e-012	4.70548e-012	3.65547e-012	3.16055e-012	
MinCout:	1.06309e-014	CoarseR:	120	CoarseC:	127

	FineC0	FineC10	FineC20	FineC30	FineC40	FineC50	FineC60	FineC70	FineC80	FineC90	FineC100	FineC110	FineC120	FineC130	FineC140	FineC150	FineC160	FineC170	FineC180	FineC190	FineC200	FineC210	FineC220	FineC230	FineC240	FineC250	
FineR0	6.50425e-010	6.0662e-010	6.2008e-010	6.13435e-010	5.65742e-010	5.96673e-010	5.42448e-010	5.33429e-010	5.7796e-010	5.56059e-010	5.91177e-010	5.65245e-010	5.78854e-010	5.66331e-010	5.7166e-010	5.3319e-010	5.75384e-010	5.57366e-010	5.56388e-010	5.56092e-010	5.43747e-010	5.40258e-010	5.35258e-010	4.91486e-010	5.47569e-010	5.36157e-010	
FineR10	6.03194e-010	6.29105e-010	6.32494e-010	6.2083e-010	6.37537e-010	5.97301e-010	5.97509e-010	5.33992e-010	5.94868e-010	5.75995e-010	5.40639e-010	5.42602e-010	5.39864e-010	5.0333e-010	5.58093e-010	5.50833e-010	5.47306e-010	5.49914e-010	5.41895e-010	5.03889e-010	5.33084e-010	5.78771e-010	5.58197e-010	5.59563e-010	5.46921e-010	5.32767e-010	
FineR20	5.89864e-010	5.9208e-010	6.28696e-010	5.95865e-010	5.94831e-010	5.56118e-010	6.08342e-010	5.75453e-010	5.72824e-010	5.79946e-010	5.2969e-010	5.77379e-010	5.29424e-010	6.12164e-010	5.75282e-010	5.78312e-010	5.30393e-010	5.55611e-010	5.69646e-010	5.64361e-010	5.46193e-010	5.39137e-010	5.4243e-010	5.78008e-010	5.49955e-010	5.48876e-010	
FineR30	6.05076e-010	6.63221e-010	6.01538e-010	6.41425e-010	5.89733e-010	5.90561e-010	6.18336e-010	5.97072e-010	5.5782e-010	5.92523e-010	5.99849e-010	5.81756e-010	5.79044e-010	5.79647e-010	5.62739e-010	5.19257e-010	5.44863e-010	4.98266e-010	5.5795e-010	5.87425e-010	5.45357e-010	5.3757e-010	5.66219e-010	5.7456e-010	5.66274e-010	5.50548e-010	
FineR40	6.30528e-010	6.14723e-010	6.22377e-010	6.48712e-010	5.77338e-010	5.96335e-010	5.80444e-010	6.42812e-010	6.12827e-010	5.85699e-010	6.09329e-010	5.61957e-010	5.97022e-010	6.31251e-010	5.70736e-010	5.80775e-010	5.60619e-010	5.47802e-010	5.55863e-010	5.76303e-010	5.31237e-010	5.43745e-010	5.72743e-010	5.85092e-010	5.77331e-010	5.73829e-010	
FineR50	6.68482e-010	6.39108e-010	6.5975e-010	6.19557e-010	6.17095e-010	6.12935e-010	5.88587e-010	6.15221e-010	5.84406e-010	6.50558e-010	5.70945e-010	5.99769e-010	5.77386e-010	5.66423e-010	5.59623e-010	5.9482e-010	5.87763e-010	5.51984e-010	5.97244e-010	5.7104e-010	5.70548e-010	5.70784e-010	6.19765e-010	5.35762e-010	5.84999e-010	5.49072e-010	
FineR60	6.08802e-010	6.01556e-010	6.10828e-010	5.89752e-010	6.12309e-010	6.38914e-010	6.05066e-010	5.85565e-010	5.97734e-010	5.74706e-010	5.68864e-010	5.85979e-010	5.69944e-010	6.09794e-010	6.59041e-010	6.09534e-010	5.57158e-010	5.87515e-010	5.73885e-010	5.93639e-010	5.68469e-010	5.8779e-010	5.99584e-010	5.75076e-010	5.73867e-010	5.46786e-010	
FineR70	6.27855e-010	6.86435e-010	6.26192e-010	6.12852e-010	5.94219e-010	6.18596e-010	6.09439e-010	5.85039e-010	5.82043e-010	6.11764e-010	5.49025e-010	5.89586e-010	6.10016e-010	6.05978e-010	5.63939e-010	5.82671e-010	6.0567e-010	5.63552e-010	5.79961e-010	5.64327e-010	5.85031e-010	5.49256e-010	6.20389e-010	6.05933e-010	5.53802e-010	5.61671e-010	
FineR80	6.38407e-010	6.00607e-010	6.37055e-010	6.26531e-010	6.22856e-010	6.2052e-010	6.1571e-010	6.29273e-010	6.14875e-010	5.73829e-010	5.64417e-010	6.00997e-010	6.08955e-010	5.60878e-010	5.82859e-010	5.72339e-010	5.87984e-010	6.18452e-010	5.60851e-010	5.84107e-010	5.6407e-010	5.74781e-010	5.76497e-010	5.85059e-010	5.53235e-010	5.66561e-010	
FineR90	6.30063e-010	6.17645e-010	6.1523e-010	6.28408e-010	6.35602e-010	5.86517e-010	5.91474e-010	5.80525e-010	6.13269e-010	6.00196e-010	5.85921e-010	5.87538e-010	5.51102e-010	5.76495e-010	5.99849e-010	5.85288e-010	5.71899e-010	5.62636e-010	5.55291e-010	5.68469e-010	5.57829e-010	5.97512e-010	5.39166e-010	5.72368e-010	5.40825e-010	5.78353e-010	
FineR100	5.88666e-010	6.64082e-010	6.53635e-010	6.43152e-010	5.68999e-010	5.79771e-010	6.19008e-010	6.07681e-010	6.00652e-010	6.26331e-010	6.11296e-010	5.9889e-010	5.71312e-010	6.02071e-010	5.76607e-010	5.48271e-010	5.97605e-010	5.92604e-010	5.84903e-010	6.10206e-010	5.68386e-010	5.77598e-010	6.10762e-010	5.23114e-010	5.75692e-010	5.97456e-010	
FineR110	5.97825e-010	6.83829e-010	6.32662e-010	6.39052e-010	5.98454e-010	6.36574e-010	6.86568e-010	5.95657e-010	6.17458e-010	5.82219e-010	5.95325e-010	6.30864e-010	6.17751e-010	5.58587e-010	5.98341e-010	5.82211e-010	6.03682e-010	5.4161e-010	5.99181e-010	5.9023e-010	5.62112e-010	6.33253e-010	5.83203e-010	6.11896e-010	5.89831e-010	5.71642e-010	
FineR120	6.28913e-010	6.76214e-010	6.51732e-010	6.5003e-010	5.84249e-010	5.9247e-010	5.80153e-010	5.70935e-010	5.67592e-010	6.02272e-010	5.86479e-010	5.6611e-010	6.18905e-010	5.97752e-010	5.63026e-010	6.14367e-010	5.94827e-010	6.20761e-010	5.91477e-010	5.84191e-010	5.27549e-010	5.94647e-010	5.73446e-010	5.43303e-010	5.81821e-010	5.50826e-010	
FineR130	6.12882e-010	6.52982e-010	6.54967e-010	6.0116e-010	6.15275e-010	6.37728e-010	5.94531e-010	6.40828e-010	6.24306e-010	5.89143e-010	6.31925e-010	5.57318e-010	5.97455e-010	5.76574e-010	5.88154e-010	6.13107e-010	5.96571e-010	5.87294e-010	5.9393e-010	5.88915e-010	5.68425e-010	5.45681e-010	5.79824e-010	5.75803e-010	5.94625e-010	6.04686e-010	
FineR140	6.35925e-010	6.33292e-010	6.3466e-010	6.32239e-010	5.50065e-010	6.79113e-010	5.55829e-010	6.19628e-010	6.32205e-010	5.82069e-010	6.14783e-010	6.15367e-010	6.10166e-010	6.14153e-010	6.0066e-010	5.65325e-010	5.48164e-010	5.89603e-010	5.66276e-010	5.60205e-010	6.21918e-010	6.07712e-010	6.1133e-010	5.78587e-010	5.3988e-010	5.86289e-010	
FineR150	6.08387e-010	6.45558e-010	5.9884e-010	5.99062e-010	6.40734e-010	5.94114e-010	6.31162e-010	5.78872e-010	5.93201e-010	6.21911e-010	5.64776e-010	5.57295e-010	5.84757e-010	5.92233e-010	5.53838e-010	5.69848e-010	5.92256e-010	6.27288e-010	5.46934e-010	6.04385e-010	5.74143e-010	5.67847e-010	5.91387e-010	6.20976e-010	6.15416e-010	5.81241e-010	
FineR160	6.18169e-010	6.4196e-010	6.51253e-010	6.71568e-010	5.92526e-010	6.08423e-010	6.15653e-010	6.05339e-010	5.64947e-010	6.36293e-010	5.92344e-010	5.55839e-010	6.05057e-010	5.79454e-010	5.7175e-010	5.8345e-010	5.57181e-010	5.43295e-010	5.45263e-010	5.85524e-010	5.49999e-010	5.81559e-010	5.95472e-010	5.52456e-010	5.97699e-010	6.07364e-010	
FineR170	6.40848e-010	6.42523e-010	5.88169e-010	6.03589e-010	6.4214e-010	6.13349e-010	5.8745e-010	6.26063e-010	5.85329e-010	6.25879e-010	5.81927e-010	6.10101e-010	5.63369e-010	5.73804e-010	5.62733e-010	6.34414e-010	5.65919e-010	6.2044e-010	5.95183e-010	5.49308e-010	5.76041e-010	5.58839e-010	6.03264e-010	5.71244e-010	5.8302e-010	5.42935e-010	
FineR180	5.93567e-010	6.60219e-010	6.33155e-010	6.23519e-010	6.11456e-010	6.19175e-010	6.42217e-010	6.36812e-010	5.80583e-010	6.1997e-010	6.00818e-010	5.79099e-010	6.2133e-010	5.99745e-010	5.68987e-010	5.89892e-010	5.80082e-010	6.6917e-010	5.88951e-010	5.95772e-010	5.90071e-010	5.55807e-010	6.05489e-010	5.91514e-010	6.26019e-010	6.18207e-010	
FineR190	6.2361e-010	6.10534e-010	6.68015e-010	6.67173e-010	5.95413e-010	6.74715e-010	6.11876e-010	5.95379e-010	5.92926e-010	5.96032e-010	6.34169e-010	5.93348e-010	6.29887e-010	6.5386e-010	6.13971e-010	6.32012e-010	5.90984e-010	5.67585e-010	5.81248e-010	5.47719e-010	5.80401e-010	6.19579e-010	5.70302e-010	5.63463e-010	5.615e-010	5.67681e-010	
FineR200	6.14433e-010	6.29626e-010	6.46105e-010	6.26705e-010	5.84757e-010	5.7537e-010	6.76122e-010	6.18179e-010	5.95195e-010	6.45571e-010	6.1215e-010	5.97006e-010	5.91353e-010	5.63364e-010	5.67419e-010	5.52424e-010	6.06169e-010	5.57773e-010	5.9666e-010	5.77147e-010	6.14408e-010	6.32e-010	5.94898e-010	5.79997e-010	6.00077e-010	5.53961e-010	
FineR210	6.6178e-010	6.22108e-010	5.98228e-010	5.9635e-010	6.46124e-010	6.52823e-010	5.79688e-010	6.2193e-010	6.20541e-010	6.42157e-010	5.88156e-010	6.1995e-010	5.75265e-010	5.77374e-010	5.87873e-010	5.8425e-010	5.67639e-010	6.21537e-010	6.17097e-010	6.00427e-010	5.78044e-010	6.62861e-010	6.032e-010	5.8744e-010	5.38455e-010	5.71171e-010	
FineR220	5.77189e-010	6.18309e-010	6.57122e-010	5.77756e-010	6.29368e-010	6.32372e-010	6.25662e-010	6.03604e-010	6.25649e-010	6.38131e-010	6.24023e-010	6.19374e-010	5.9987e-010	5.52706e-010	6.0146e-010	5.84158e-010	5.91065e-010	6.08812e-010	6.75099e-010	6.15339e-010	5.82888e-010	5.81643e-010	6.10705e-010	5.74682e-010	5.82651e-010	5.67039e-010	
FineR230	6.50728e-010	6.63258e-010	6.34243e-010	6.13038e-010	6.72466e-010	6.33847e-010	6.43499e-010	5.79275e-010	6.1481e-010	6.17124e-010	5.63262e-010	5.71448e-010	5.95056e-010	5.88382e-010	5.69026e-010	5.84133e-010	5.97698e-010	6.03511e-010	5.68944e-010	6.02546e-010	6.26973e-010	5.55182e-010	5.73924e-010	6.13521e-010	6.26683e-010	5.80375e-010	
FineR240	6.07772e-010	6.37756e-010	6.22285e-010	6.18627e-010	6.275e-010	5.94389e-010	5.99456e-010	6.39121e-010	5.97911e-010	5.84909e-010	6.04862e-010	5.71371e-010	5.87654e-010	6.55644e-010	5.78802e-010	6.22815e-010	5.82623e-010	6.07157e-010	5.9995e-010	5.82557e-010	6.09145e-010	5.64223e-010	5.78994e-010	5.65753e-010	5.85765e-010	5.72995e-010	
FineR250	6.16962e-010	6.04131e-010	6.20136e-010	6.11627e-010	6.2272e-010	6.32588e-010	6.17705e-010	6.22269e-010	5.93664e-010	6.18756e-010	5.76191e-010	6.24241e-010	5.5462e-010	6.14398e-010	5.87613e-010	5.63424e-010	5.8353e-010	6.26441e-010	5.99818e-010	6.21719e-010	5.75908e-010	5.54829e-010	5.77096e-010	5.99919e-010	6.03904e-010	5.44816e-010	
MinCout:	4.91486e-010	FineR:	0	FineC:	230

	FineC220	FineC221	FineC222	FineC223	FineC224	FineC225	FineC226	FineC227	FineC228	FineC229	FineC230	FineC231	FineC232	FineC233	FineC234	FineC235	FineC236	FineC237	FineC238	FineC239	FineC240	
FineR0	5.16838e-010	5.35794e-010	5.69882e-010	5.77291e-010	5.69271e-010	5.2482e-010	5.47546e-010	5.83663e-010	5.45878e-010	5.54437e-010	5.56321e-010	5.17538e-010	5.66773e-010	5.39311e-010	5.23932e-010	5.57135e-010	5.23009e-010	5.55162e-010	5.81422e-010	5.33655e-010	5.48073e-010	
FineR1	5.38315e-010	5.40791e-010	5.35255e-010	5.34179e-010	5.52177e-010	5.37947e-010	5.31556e-010	5.12356e-010	5.25326e-010	5.52944e-010	5.50872e-010	5.55778e-010	5.51379e-010	5.13136e-010	5.20134e-010	5.88469e-010	5.02411e-010	5.29229e-010	5.70134e-010	5.38534e-010	5.30994e-010	
FineR2	5.11558e-010	5.53763e-010	5.20187e-010	5.13291e-010	5.25617e-010	5.49189e-010	5.33857e-010	5.23336e-010	5.40569e-010	5.29532e-010	5.59387e-010	5.63642e-010	5.39828e-010	5.29095e-010	5.60873e-010	5.93351e-010	5.5631e-010	5.75423e-010	5.64892e-010	5.54112e-010	5.4684e-010	
FineR3	5.23032e-010	5.1485e-010	5.58866e-010	5.63535e-010	5.48878e-010	5.38532e-010	5.30006e-010	5.31382e-010	5.78345e-010	5.21473e-010	5.14662e-010	5.29579e-010	5.24122e-010	5.51895e-010	5.54765e-010	5.33294e-010	5.37426e-010	5.16535e-010	5.88129e-010	5.62857e-010	5.68744e-010	
FineR4	5.62111e-010	5.52629e-010	5.68398e-010	6.09193e-010	5.65977e-010	5.32444e-010	5.18615e-010	5.37822e-010	5.38751e-010	5.33718e-010	5.39643e-010	5.47362e-010	5.00682e-010	5.34978e-010	5.17519e-010	5.21222e-010	5.11354e-010	5.31646e-010	5.96166e-010	5.31424e-010	5.23521e-010	
FineR5	5.77141e-010	5.51708e-010	5.65784e-010	5.39328e-010	5.4822e-010	5.46247e-010	5.41802e-010	5.14615e-010	5.17952e-010	5.40964e-010	5.81124e-010	5.59818e-010	5.55147e-010	5.1651e-010	5.5807e-010	5.58526e-010	5.40089e-010	5.51897e-010	5.50563e-010	5.32519e-010	5.22211e-010	
FineR6	5.22817e-010	5.55878e-010	5.23338e-010	5.34579e-010	5.32971e-010	5.01225e-010	5.51934e-010	5.35224e-010	5.26585e-010	5.26013e-010	5.18602e-010	5.2484e-010	5.34981e-010	5.33099e-010	5.05954e-010	5.5346e-010	5.90313e-010	5.24691e-010	5.62499e-010	5.39328e-010	5.5914e-010	
FineR7	5.35223e-010	5.42948e-010	5.4374e-010	5.27032e-010	5.48837e-010	5.5446e-010	5.51268e-010	5.50812e-010	5.32568e-010	5.72119e-010	5.3612e-010	5.20855e-010	5.35221e-010	5.06422e-010	5.05302e-010	5.50149e-010	5.4636e-010	5.00932e-010	5.30986e-010	5.29992e-010	5.31026e-010	
FineR8	5.42053e-010	5.53399e-010	5.26434e-010	5.33687e-010	5.41228e-010	5.62896e-010	5.3459e-010	5.274e-010	5.40401e-010	5.25199e-010	5.49502e-010	5.42124e-010	5.22308e-010	5.51824e-010	5.20628e-010	5.57628e-010	5.43359e-010	5.28084e-010	5.70864e-010	5.3873e-010	5.64808e-010	
FineR9	5.34221e-010	5.48504e-010	5.79896e-010	5.05816e-010	5.46415e-010	5.39062e-010	5.24123e-010	5.63932e-010	5.33314e-010	5.59562e-010	5.25373e-010	5.90371e-010	5.46584e-010	5.18157e-010	5.3331e-010	5.59558e-010	5.34966e-010	5.62369e-010	5.09906e-010	5.37148e-010	5.40294e-010	
FineR10	5.2202e-010	5.60709e-010	5.29246e-010	5.38826e-010	5.7821e-010	5.74301e-010	5.33168e-010	5.4747e-010	5.16024e-010	5.17977e-010	5.65787e-010	5.30183e-010	5.39889e-010	5.55018e-010	5.47764e-010	5.58241e-010	5.48573e-010	5.22232e-010	5.28921e-010	5.54762e-010	5.59401e-010	
FineR11	5.67789e-010	5.14434e-010	5.16725e-010	5.02355e-010	5.29241e-010	5.56737e-010	5.4637e-010	5.65576e-010	5.51487e-010	5.61986e-010	5.15546e-010	5.23458e-010	5.73585e-010	5.00127e-010	5.60673e-010	5.21755e-010	5.3119e-010	5.4827e-010	5.52519e-010	5.52807e-010	5.17031e-010	
FineR12	5.32726e-010	5.61091e-010	5.63289e-010	5.60882e-010	5.63596e-010	5.74158e-010	5.53123e-010	5.62161e-010	5.40299e-010	5.40496e-010	5.44295e-010	5.82229e-010	5.7509e-010	5.44241e-010	5.73293e-010	5.342e-010	5.2017e-010	5.26546e-010	5.35086e-010	5.34451e-010	5.63182e-010	
FineR13	5.64882e-010	5.15384e-010	5.45043e-010	5.38069e-010	5.32132e-010	5.05184e-010	5.33164e-010	5.91673e-010	5.28367e-010	5.3851e-010	5.37229e-010	5.5673e-010	5.05531e-010	5.52575e-010	4.83164e-010	5.34089e-010	5.28755e-010	5.33862e-010	5.44576e-010	5.70784e-010	4.98401e-010	
FineR14	5.9901e-010	5.34492e-010	5.46814e-010	5.53983e-010	5.54631e-010	5.68542e-010	5.19277e-010	5.4712e-010	5.42476e-010	5.49638e-010	5.48987e-010	5.3576e-010	5.48589e-010	5.38084e-010	5.52583e-010	5.57348e-010	5.57321e-010	5.73757e-010	5.23083e-010	5.55816e-010	5.01549e-010	
FineR15	5.34167e-010	5.63225e-010	5.27296e-010	5.3461e-010	5.3046e-010	5.63469e-010	5.34457e-010	5.25997e-010	5.40448e-010	5.56022e-010	5.52113e-010	5.39382e-010	5.96924e-010	5.43109e-010	5.26333e-010	5.48045e-010	5.79493e-010	5.29995e-010	5.64458e-010	5.13541e-010	5.28946e-010	
FineR16	5.2525e-010	5.5804e-010	5.55334e-010	5.59839e-010	5.58322e-010	5.44561e-010	5.58233e-010	5.4006e-010	5.39953e-010	5.31577e-010	5.38239e-010	5.3889e-010	5.68587e-010	5.42758e-010	5.36456e-010	5.44866e-010	5.52145e-010	5.50222e-010	5.97138e-010	5.73512e-010	5.66242e-010	
FineR17	5.7748e-010	5.68286e-010	5.32409e-010	6.00642e-010	5.33314e-010	5.43305e-010	5.21644e-010	5.73742e-010	5.22752e-010	5.68352e-010	5.54988e-010	5.44601e-010	5.23444e-010	5.05681e-010	5.5685e-010	5.41925e-010	5.51089e-010	5.70874e-010	5.37185e-010	5.18848e-010	5.13203e-010	
FineR18	5.76316e-010	5.23743e-010	5.53255e-010	5.5404e-010	5.49954e-010	5.62561e-010	5.27155e-010	5.72273e-010	5.42639e-010	5.01602e-010	5.41197e-010	5.91146e-010	5.66919e-010	5.50712e-010	5.16466e-010	5.60067e-010	5.36285e-010	5.54195e-010	5.44784e-010	5.91958e-010	5.47158e-010	
FineR19	5.48889e-010	5.48706e-010	5.11881e-010	5.53433e-010	5.11035e-010	5.66571e-010	5.67604e-010	5.11031e-010	5.30966e-010	5.23614e-010	5.55486e-010	5.56148e-010	5.30889e-010	5.67512e-010	5.34621e-010	5.39984e-010	5.30035e-010	5.90523e-010	5.69721e-010	5.27985e-010	5.31053e-010	
FineR20	5.52995e-010	5.44326e-010	6.02464e-010	5.84001e-010	5.35013e-010	5.83065e-010	5.5637e-010	5.76226e-010	5.43564e-010	5.61389e-010	5.55295e-010	5.3242e-010	5.51612e-010	5.79782e-010	5.33316e-010	5.91733e-010	5.04578e-010	5.35686e-010	5.28806e-010	5.64968e-010	5.38772e-010	
MinCout:	4.83164e-010	FineR:	13	FineC:	234

