	CoarseC0	CoarseC10	CoarseC20	CoarseC30	CoarseC40	CoarseC50	CoarseC60	CoarseC70	CoarseC80	CoarseC90	CoarseC100	CoarseC110	CoarseC120	CoarseC130	CoarseC140	CoarseC150	CoarseC160	CoarseC170	CoarseC180	CoarseC190	CoarseC200	CoarseC210	CoarseC220	CoarseC230	CoarseC240	CoarseC250	
CoarseR0	-2.99222e-010	-2.83767e-010	-2.73189e-010	-2.65286e-010	-2.59415e-010	-2.55038e-010	-2.51732e-010	-2.49098e-010	-2.46999e-010	-2.45185e-010	-2.43898e-010	-2.43553e-010	-2.4305e-010	-2.42599e-010	-2.43104e-010	-2.4392e-010	-2.44642e-010	-2.44994e-010	-2.45028e-010	-2.44743e-010	-2.44096e-010	-2.43219e-010	-2.42014e-010	-2.40598e-010	-2.39018e-010	-2.37275e-010	
CoarseR10	-2.26641e-010	-2.13611e-010	-2.04918e-010	-1.98432e-010	-1.93488e-010	-1.89761e-010	-1.87863e-010	-1.8661e-010	-1.85775e-010	-1.8553e-010	-1.85543e-010	-1.86931e-010	-1.88834e-010	-1.90607e-010	-1.92247e-010	-1.93651e-010	-1.94833e-010	-1.95712e-010	-1.96364e-010	-1.96744e-010	-1.96871e-010	-1.9672e-010	-1.96404e-010	-1.95922e-010	-1.95372e-010	-1.94745e-010	
CoarseR20	-1.69508e-010	-1.58462e-010	-1.51238e-010	-1.45984e-010	-1.42728e-010	-1.40623e-010	-1.39299e-010	-1.38728e-010	-1.39192e-010	-1.41045e-010	-1.43179e-010	-1.45367e-010	-1.47574e-010	-1.49749e-010	-1.51825e-010	-1.53822e-010	-1.55508e-010	-1.57129e-010	-1.58524e-010	-1.59764e-010	-1.60777e-010	-1.61909e-010	-1.63347e-010	-1.64794e-010	-1.6602e-010	-1.66808e-010	
CoarseR30	-1.24183e-010	-1.14693e-010	-1.08969e-010	-1.05183e-010	-1.0276e-010	-1.01259e-010	-1.01077e-010	-1.02474e-010	-1.04401e-010	-1.06619e-010	-1.0903e-010	-1.11514e-010	-1.14096e-010	-1.16738e-010	-1.19342e-010	-1.21864e-010	-1.24361e-010	-1.26925e-010	-1.29315e-010	-1.32317e-010	-1.35518e-010	-1.38551e-010	-1.40945e-010	-1.42808e-010	-1.44289e-010	-1.45342e-010	
CoarseR40	4.30108e-010	-8.0863e-011	-7.60221e-011	-7.29633e-011	-7.1183e-011	-7.1206e-011	-7.24173e-011	-7.40143e-011	-7.59887e-011	-7.83701e-011	-8.09649e-011	-8.37223e-011	-8.66989e-011	-8.97635e-011	-9.30104e-011	-9.63218e-011	-9.98986e-011	-1.0413e-010	-1.09006e-010	-1.13452e-010	-1.1729e-010	-1.20343e-010	-1.22967e-010	-1.24972e-010	-1.2661e-010	-1.27843e-010	
CoarseR50	4.71785e-010	4.4414e-010	-4.98857e-011	-4.76877e-011	-4.73333e-011	-4.79086e-011	-4.91224e-011	-5.07126e-011	-5.28028e-011	-5.5246e-011	-5.80345e-011	-6.10326e-011	-6.44322e-011	-6.80762e-011	-7.19938e-011	-7.65682e-011	-8.23046e-011	-8.84044e-011	-9.37123e-011	-9.81905e-011	-1.02021e-010	-1.05219e-010	-1.07952e-010	-1.10113e-010	-1.11847e-010	-1.13282e-010	
CoarseR60	5.33719e-010	4.39827e-010	4.24645e-010	-2.86685e-011	-2.83334e-011	-2.88824e-011	-3.00088e-011	-3.16273e-011	-3.37279e-011	-3.628e-011	-3.92866e-011	-4.26154e-011	-4.63951e-011	-5.07522e-011	-5.59836e-011	-6.2733e-011	-6.956e-011	-7.56663e-011	-8.08596e-011	-8.53691e-011	-8.91254e-011	-9.24425e-011	-9.52751e-011	-9.75117e-011	-9.94213e-011	-1.00908e-010	
CoarseR70	4.37695e-010	4.01872e-010	4.05296e-010	-1.38527e-011	-1.3175e-011	-1.33932e-011	-1.43438e-011	-1.5886e-011	-1.79685e-011	-2.06198e-011	-2.37918e-011	-2.7473e-011	-3.18336e-011	-3.73983e-011	-4.46474e-011	-5.20917e-011	-5.88326e-011	-6.47051e-011	-6.99327e-011	-7.43103e-011	-7.82233e-011	-8.14906e-011	-8.4365e-011	-8.67316e-011	-8.87226e-011	-9.03499e-011	
CoarseR80	4.80817e-010	4.95412e-010	4.34424e-010	4.37879e-010	-5.11795e-013	-5.99008e-013	-1.41576e-012	-2.83855e-012	-4.95877e-012	-7.61358e-012	-1.08659e-011	-1.49102e-011	-2.00286e-011	-2.72239e-011	-3.5324e-011	-4.27281e-011	-4.93237e-011	-5.51638e-011	-6.02802e-011	-6.47205e-011	-6.85794e-011	-7.18815e-011	-7.47803e-011	-7.72587e-011	-7.93619e-011	-8.10062e-011	
CoarseR90	4.68157e-010	4.85029e-010	4.18257e-010	4.32131e-010	9.49562e-012	9.58959e-012	9.0253e-012	7.73935e-012	5.72803e-012	3.07593e-012	-3.63711e-013	-4.70636e-012	-1.10835e-011	-1.90807e-011	-2.72186e-011	-3.44915e-011	-4.10307e-011	-4.68291e-011	-5.18998e-011	-5.6355e-011	-6.02702e-011	-6.3636e-011	-6.66107e-011	-6.90848e-011	-7.12596e-011	-7.30588e-011	
CoarseR100	4.50881e-010	5.26815e-010	4.58797e-010	4.28625e-010	1.76265e-011	1.7998e-011	1.76245e-011	1.64101e-011	1.45373e-011	1.19308e-011	8.38913e-012	3.64682e-012	-3.62362e-012	-1.19654e-011	-1.98731e-011	-2.70924e-011	-3.35091e-011	-3.92941e-011	-4.43597e-011	-4.888e-011	-5.28145e-011	-5.62821e-011	-5.93453e-011	-6.18677e-011	-6.41189e-011	-6.59873e-011	
CoarseR110	4.62844e-010	4.4908e-010	4.10366e-010	4.05169e-010	2.41071e-011	2.47127e-011	2.45893e-011	2.3623e-011	2.18746e-011	1.92808e-011	1.56252e-011	1.03724e-011	2.83025e-012	-5.62444e-012	-1.33479e-011	-2.04022e-011	-2.684e-011	-3.25566e-011	-3.77333e-011	-4.22675e-011	-4.62735e-011	-4.97376e-011	-5.29335e-011	-5.55368e-011	-5.79026e-011	-5.98344e-011	
CoarseR120	4.52927e-010	4.11165e-010	3.84801e-010	3.88224e-010	2.92708e-011	3.01504e-011	3.02258e-011	2.93962e-011	2.78501e-011	2.53958e-011	2.17163e-011	1.61199e-011	8.34742e-012	1.38341e-013	-7.48893e-012	-1.44986e-011	-2.09003e-011	-2.6661e-011	-3.17838e-011	-3.6436e-011	-4.04942e-011	-4.40624e-011	-4.72436e-011	-4.99604e-011	-5.23543e-011	-5.43477e-011	
CoarseR130	4.15239e-010	3.62175e-010	3.75177e-010	4.18054e-010	3.32168e-011	3.43152e-011	3.46788e-011	3.41294e-011	3.27486e-011	3.03648e-011	2.69029e-011	2.11823e-011	1.34693e-011	5.27205e-012	-2.2141e-012	-9.26673e-012	-1.553e-011	-2.13606e-011	-2.66117e-011	-3.11982e-011	-3.53925e-011	-3.89868e-011	-4.22058e-011	-4.50768e-011	-4.75419e-011	-4.96521e-011	
CoarseR140	3.53918e-010	3.65163e-010	3.82924e-010	4.18221e-010	3.61399e-011	3.75079e-011	3.80006e-011	3.77688e-011	3.65477e-011	3.44483e-011	3.11201e-011	2.55915e-011	1.79756e-011	9.82398e-012	2.26418e-012	-4.63247e-012	-1.10069e-011	-1.68129e-011	-2.199e-011	-2.66371e-011	-3.08757e-011	-3.46368e-011	-3.7992e-011	-4.08075e-011	-4.34206e-011	-4.55757e-011	
CoarseR150	3.13728e-010	3.5604e-010	4.12677e-010	4.59706e-010	3.82007e-011	3.98465e-011	4.06015e-011	4.04951e-011	3.95603e-011	3.76795e-011	3.45199e-011	2.939e-011	2.1992e-011	1.39451e-011	6.38834e-012	-6.45188e-013	-6.9671e-012	-1.27996e-011	-1.80719e-011	-2.2808e-011	-2.70828e-011	-3.07975e-011	-3.42446e-011	-3.72228e-011	-3.98179e-011	-4.20595e-011	
CoarseR160	3.3336e-010	4.01747e-010	5.40342e-010	5.20775e-010	3.95991e-011	4.13795e-011	4.23455e-011	4.2498e-011	4.17493e-011	4.01282e-011	3.72528e-011	3.25272e-011	2.54988e-011	1.74238e-011	9.90421e-012	2.87712e-012	-3.54104e-012	-9.39862e-012	-1.4721e-011	-1.945e-011	-2.38115e-011	-2.77169e-011	-3.11181e-011	-3.4149e-011	-3.68479e-011	-3.91364e-011	
CoarseR170	3.4634e-010	5.30082e-010	4.94337e-010	4.43516e-010	4.03844e-011	4.23986e-011	4.35401e-011	4.38069e-011	4.32731e-011	4.18845e-011	3.93292e-011	3.5141e-011	2.83755e-011	2.05012e-011	1.29439e-011	5.89505e-012	-6.2495e-013	-6.57104e-012	-1.19074e-011	-1.67045e-011	-2.10803e-011	-2.49829e-011	-2.85393e-011	-3.16157e-011	-3.43902e-011	-3.67807e-011	
CoarseR180	3.42111e-010	4.95467e-010	4.24e-010	4.25507e-010	4.06862e-011	4.26978e-011	4.41044e-011	4.45761e-011	4.42552e-011	4.30444e-011	4.08201e-011	3.71622e-011	3.07314e-011	2.31165e-011	1.55151e-011	8.41285e-012	1.85166e-012	-4.13402e-012	-9.53135e-012	-1.44548e-011	-1.88925e-011	-2.2817e-011	-2.64278e-011	-2.96027e-011	-3.23633e-011	-3.48786e-011	
CoarseR190	4.45874e-010	4.10915e-010	4.17321e-010	4.58277e-010	4.05716e-011	4.2807e-011	4.43364e-011	4.49881e-011	4.47662e-011	4.36774e-011	4.17543e-011	3.84652e-011	3.26712e-011	2.52612e-011	1.76554e-011	1.04608e-011	3.88632e-012	-2.19804e-012	-7.73041e-012	-1.26744e-011	-1.71664e-011	-2.11276e-011	-2.47766e-011	-2.80047e-011	-3.08904e-011	-3.33734e-011	
CoarseR200	4.67029e-010	3.86773e-010	4.27052e-010	4.63605e-010	4.01742e-011	4.25088e-011	4.41242e-011	4.4844e-011	4.4877e-011	4.39653e-011	4.21555e-011	3.92235e-011	3.40288e-011	2.70364e-011	1.9373e-011	1.21688e-011	5.48093e-012	-6.67689e-013	-6.26015e-012	-1.13041e-011	-1.58448e-011	-1.99866e-011	-2.36002e-011	-2.68922e-011	-2.98029e-011	-3.23045e-011	
CoarseR210	4.38792e-010	3.86015e-010	4.17226e-010	5.22561e-010	3.94586e-011	4.18915e-011	4.36229e-011	4.45625e-011	4.45754e-011	4.38547e-011	4.23172e-011	3.95871e-011	3.49996e-011	2.83111e-011	2.07205e-011	1.34465e-011	6.68774e-012	4.59525e-013	-5.13925e-012	-1.03005e-011	-1.49322e-011	-1.90877e-011	-2.28266e-011	-2.60394e-011	-2.90139e-011	-3.16206e-011	
CoarseR220	3.63545e-010	4.05201e-010	4.96289e-010	5.26059e-010	3.86553e-011	4.11555e-011	4.29431e-011	4.38859e-011	4.41102e-011	4.34662e-011	4.20554e-011	3.96152e-011	3.55738e-011	2.91208e-011	2.16801e-011	1.43709e-011	7.55194e-012	1.34624e-012	-4.40568e-012	-9.57322e-012	-1.42951e-011	-1.85151e-011	-2.2284e-011	-2.56449e-011	-2.85923e-011	-3.11786e-011	
CoarseR230	3.84346e-010	4.18254e-010	4.921e-010	4.66586e-010	3.77402e-011	4.03371e-011	4.21238e-011	4.31956e-011	4.34843e-011	4.29393e-011	4.1616e-011	3.93084e-011	3.57326e-011	2.96085e-011	2.2376e-011	1.498e-011	8.13264e-012	1.86244e-012	-3.9699e-012	-9.17107e-012	-1.39581e-011	-1.81613e-011	-2.20297e-011	-2.53648e-011	-2.83804e-011	-3.10196e-011	
CoarseR240	3.65424e-010	4.2335e-010	4.91213e-010	4.76984e-010	3.67132e-011	3.93589e-011	4.12294e-011	4.23712e-011	4.26195e-011	4.22125e-011	4.0945e-011	3.88615e-011	3.55235e-011	2.98257e-011	2.27466e-011	1.53714e-011	8.47005e-012	2.11281e-012	-3.75354e-012	-9.05031e-012	-1.38236e-011	-1.80754e-011	-2.19667e-011	-2.53663e-011	-2.83952e-011	-3.10709e-011	
CoarseR250	3.65374e-010	4.33278e-010	4.6262e-010	4.34976e-010	3.5731e-011	3.84277e-011	4.02916e-011	4.14534e-011	4.18027e-011	4.14103e-011	4.0239e-011	3.83046e-011	3.5095e-011	2.98091e-011	2.29711e-011	1.55117e-011	8.58977e-012	2.1298e-012	-3.72973e-012	-9.07895e-012	-1.38328e-011	-1.8139e-011	-2.20954e-011	-2.54516e-011	-2.85932e-011	-3.12779e-011	
MinCout:	1.38341e-013	CoarseR:	120	CoarseC:	130

	CoarseC40	CoarseC41	CoarseC42	CoarseC43	CoarseC44	CoarseC45	CoarseC46	CoarseC47	CoarseC48	CoarseC49	CoarseC50	CoarseC51	CoarseC52	CoarseC53	CoarseC54	CoarseC55	CoarseC56	CoarseC57	CoarseC58	CoarseC59	CoarseC60	
CoarseR70	-1.20379e-011	-1.19993e-011	-1.19897e-011	-1.19439e-011	-1.19592e-011	-1.19817e-011	-1.20426e-011	-1.20908e-011	-1.21034e-011	-1.21558e-011	-1.2246e-011	-1.23002e-011	-1.23836e-011	-1.24574e-011	-1.25265e-011	-1.26432e-011	-1.27594e-011	-1.28284e-011	-1.28891e-011	-1.29899e-011	-1.31415e-011	
CoarseR71	-1.07041e-011	-1.06293e-011	-1.05728e-011	-1.0573e-011	-1.05606e-011	-1.06197e-011	-1.06528e-011	-1.07053e-011	-1.07727e-011	-1.08291e-011	-1.08317e-011	-1.09227e-011	-1.09276e-011	-1.10554e-011	-1.11301e-011	-1.12191e-011	-1.12953e-011	-1.14038e-011	-1.15079e-011	-1.15711e-011	-1.16861e-011	
CoarseR72	-9.41592e-012	-9.335e-012	-9.25138e-012	-9.29879e-012	-9.34151e-012	-9.32048e-012	-9.34821e-012	-9.37364e-012	-9.39451e-012	-9.48605e-012	-9.54327e-012	-9.5969e-012	-9.64717e-012	-9.68732e-012	-9.78333e-012	-9.86659e-012	-9.94756e-012	-1.00682e-011	-1.01675e-011	-1.02425e-011	-1.03611e-011	
CoarseR73	-8.16496e-012	-8.05644e-012	-8.00745e-012	-7.97498e-012	-8.0138e-012	-8.00744e-012	-8.03831e-012	-8.05727e-012	-8.09264e-012	-8.19854e-012	-8.24007e-012	-8.26522e-012	-8.3804e-012	-8.45546e-012	-8.49628e-012	-8.59216e-012	-8.6356e-012	-8.75989e-012	-8.87133e-012	-8.9315e-012	-9.10628e-012	
CoarseR74	-6.85423e-012	-6.79218e-012	-6.70651e-012	-6.68971e-012	-6.69017e-012	-6.771e-012	-6.72284e-012	-6.79777e-012	-6.82693e-012	-6.85353e-012	-6.9186e-012	-7.02158e-012	-7.02965e-012	-7.09517e-012	-7.12903e-012	-7.27099e-012	-7.3694e-012	-7.45485e-012	-7.57228e-012	-7.62623e-012	-7.75253e-012	
CoarseR75	-5.60183e-012	-5.54411e-012	-5.49375e-012	-5.47032e-012	-5.49581e-012	-5.49689e-012	-5.53664e-012	-5.52197e-012	-5.60696e-012	-5.62732e-012	-5.70559e-012	-5.7709e-012	-5.7913e-012	-5.83299e-012	-5.94076e-012	-6.03521e-012	-6.11862e-012	-6.21757e-012	-6.30583e-012	-6.37283e-012	-6.51126e-012	
CoarseR76	-4.40741e-012	-4.27028e-012	-4.33779e-012	-4.31865e-012	-4.21275e-012	-4.30165e-012	-4.29367e-012	-4.33411e-012	-4.33011e-012	-4.41565e-012	-4.42745e-012	-4.51538e-012	-4.5396e-012	-4.58493e-012	-4.69705e-012	-4.75393e-012	-4.84989e-012	-4.94358e-012	-5.07677e-012	-5.10486e-012	-5.23972e-012	
CoarseR77	-3.23894e-012	-3.13682e-012	-3.13599e-012	-3.14183e-012	-3.11302e-012	-3.08101e-012	-3.1389e-012	-3.14191e-012	-3.14133e-012	-3.17914e-012	-3.21461e-012	-3.28728e-012	-3.31538e-012	-3.38281e-012	-3.47962e-012	-3.54988e-012	-3.60801e-012	-3.73807e-012	-3.8745e-012	-3.87345e-012	-3.97053e-012	
CoarseR78	-2.03378e-012	-1.94725e-012	-1.9291e-012	-1.91883e-012	-1.93554e-012	-1.86606e-012	-1.85444e-012	-1.93459e-012	-1.93815e-012	-1.97037e-012	-1.97697e-012	-2.10538e-012	-2.04461e-012	-2.24116e-012	-2.26769e-012	-2.29955e-012	-2.39377e-012	-2.495e-012	-2.58386e-012	-2.71247e-012	-2.72912e-012	
CoarseR79	-9.29806e-013	-8.98988e-013	-8.43492e-013	-7.8451e-013	-8.05786e-013	-8.33112e-013	-8.05418e-013	-7.84215e-013	-8.33174e-013	-8.78822e-013	-8.79524e-013	-9.70038e-013	-1.00559e-012	-1.03855e-012	-1.13338e-012	-1.16887e-012	-1.2342e-012	-1.33834e-012	-1.38957e-012	-1.52149e-012	-1.62445e-012	
CoarseR80	1.69104e-013	2.99588e-013	2.67713e-013	3.43387e-013	3.18705e-013	2.97567e-013	3.21356e-013	3.38649e-013	3.37476e-013	3.19986e-013	2.83495e-013	2.30784e-013	2.33087e-013	1.54764e-013	6.95582e-014	-4.34077e-014	-7.06435e-014	-1.78924e-013	-2.1437e-013	-2.85057e-013	-4.2501e-013	
CoarseR81	1.22841e-012	1.34469e-012	1.30906e-012	1.40133e-012	1.41478e-012	1.43186e-012	1.40998e-012	1.42372e-012	1.39904e-012	1.35573e-012	1.34768e-012	1.33336e-012	1.28051e-012	1.25007e-012	1.22257e-012	1.09592e-012	1.02356e-012	9.44965e-013	8.86998e-013	7.99178e-013	6.80194e-013	
CoarseR82	2.3234e-012	2.36305e-012	2.41694e-012	2.44335e-012	2.45298e-012	2.51825e-012	2.49262e-012	2.46096e-012	2.48415e-012	2.46937e-012	2.44796e-012	2.34628e-012	2.34129e-012	2.33961e-012	2.27657e-012	2.18808e-012	2.15394e-012	2.03967e-012	1.97832e-012	1.86892e-012	1.74532e-012	
CoarseR83	3.369e-012	3.39385e-012	3.43468e-012	3.45577e-012	3.47218e-012	3.51415e-012	3.52641e-012	3.50101e-012	3.47892e-012	3.49285e-012	3.47784e-012	3.3725e-012	3.39635e-012	3.35896e-012	3.31498e-012	3.23271e-012	3.19528e-012	3.11944e-012	3.01337e-012	2.99424e-012	2.8857e-012	
CoarseR84	4.37633e-012	4.40736e-012	4.45527e-012	4.50453e-012	4.55938e-012	4.53331e-012	4.58482e-012	4.58791e-012	4.56206e-012	4.54008e-012	4.55329e-012	4.49578e-012	4.48425e-012	4.43313e-012	4.41843e-012	4.33229e-012	4.24973e-012	4.21232e-012	4.10275e-012	4.02877e-012	3.9502e-012	
CoarseR85	5.36616e-012	5.46656e-012	5.46869e-012	5.53533e-012	5.53365e-012	5.53622e-012	5.58377e-012	5.55132e-012	5.56367e-012	5.56051e-012	5.50674e-012	5.56181e-012	5.50444e-012	5.46021e-012	5.40924e-012	5.34235e-012	5.29822e-012	5.22506e-012	5.1353e-012	5.06742e-012	4.9442e-012	
CoarseR86	6.32817e-012	6.4568e-012	6.4854e-012	6.5052e-012	6.54205e-012	6.5421e-012	6.54358e-012	6.50821e-012	6.54889e-012	6.52962e-012	6.54609e-012	6.51452e-012	6.48478e-012	6.38574e-012	6.37453e-012	6.36508e-012	6.30786e-012	6.18892e-012	6.14814e-012	6.10984e-012	5.94946e-012	
CoarseR87	7.30145e-012	7.41606e-012	7.43102e-012	7.44769e-012	7.47111e-012	7.51838e-012	7.50615e-012	7.5098e-012	7.51432e-012	7.48214e-012	7.52782e-012	7.51157e-012	7.47991e-012	7.46078e-012	7.36145e-012	7.29765e-012	7.27966e-012	7.17975e-012	7.11293e-012	7.08066e-012	6.98188e-012	
CoarseR88	8.2055e-012	8.34639e-012	8.36974e-012	8.46613e-012	8.45347e-012	8.48762e-012	8.48298e-012	8.4817e-012	8.47321e-012	8.4798e-012	8.44747e-012	8.45019e-012	8.45722e-012	8.44492e-012	8.38418e-012	8.27517e-012	8.22124e-012	8.15979e-012	8.07019e-012	8.07766e-012	7.98529e-012	
CoarseR89	9.14102e-012	9.19467e-012	9.26701e-012	9.26501e-012	9.32366e-012	9.36536e-012	9.3977e-012	9.34193e-012	9.38274e-012	9.40585e-012	9.40175e-012	9.39194e-012	9.35279e-012	9.3371e-012	9.31668e-012	9.20351e-012	9.15587e-012	9.05031e-012	9.04213e-012	9.00305e-012	8.85613e-012	
CoarseR90	1.00059e-011	1.00982e-011	1.01559e-011	1.01828e-011	1.01743e-011	1.01909e-011	1.02218e-011	1.02561e-011	1.02623e-011	1.02517e-011	1.02131e-011	1.02196e-011	1.03034e-011	1.02335e-011	1.01564e-011	1.01441e-011	1.00649e-011	9.97546e-012	9.92171e-012	9.92245e-012	9.8229e-012	
MinCout:	-4.34077e-014	CoarseR:	80	CoarseC:	55

	FineC0	FineC10	FineC20	FineC30	FineC40	FineC50	FineC60	FineC70	FineC80	FineC90	FineC100	FineC110	FineC120	FineC130	FineC140	FineC150	FineC160	FineC170	FineC180	FineC190	FineC200	FineC210	FineC220	FineC230	FineC240	FineC250	
FineR0	5.69842e-010	4.7478e-010	-1.74105e-011	-1.53559e-011	-1.38248e-011	-1.25515e-011	-1.16652e-011	-1.09285e-011	-1.02529e-011	-9.77314e-012	-9.27271e-012	-8.96037e-012	-8.52276e-012	-8.30813e-012	-8.01826e-012	-7.81229e-012	-7.63944e-012	-7.39125e-012	-7.30152e-012	-7.13723e-012	-6.99663e-012	-6.87339e-012	-6.74158e-012	-6.66051e-012	-6.5698e-012	-6.48848e-012	
FineR10	5.10499e-010	7.62405e-010	-1.13736e-011	-9.36035e-012	-7.80584e-012	-6.62268e-012	-5.7806e-012	-5.05411e-012	-4.42617e-012	-3.93228e-012	-3.51036e-012	-3.1416e-012	-2.8234e-012	-2.62152e-012	-2.40937e-012	-2.19739e-012	-2.02723e-012	-1.84771e-012	-1.71953e-012	-1.53977e-012	-1.44421e-012	-1.35794e-012	-1.27177e-012	-1.18534e-012	-1.09896e-012	-1.04555e-012	
FineR20	4.58431e-010	4.78638e-010	-9.83558e-012	-7.79389e-012	-6.25879e-012	-5.03892e-012	-4.15787e-012	-3.46282e-012	-2.79342e-012	-2.34031e-012	-1.91687e-012	-1.6078e-012	-1.23652e-012	-1.03247e-012	-8.18516e-013	-6.04545e-013	-4.22908e-013	-2.50869e-013	-1.72325e-013	-7.48928e-014	5.52834e-014	1.10383e-013	2.40667e-013	3.38088e-013	3.84173e-013	4.72098e-013	
FineR30	4.71442e-010	4.66816e-010	-9.24353e-012	-7.21104e-012	-5.62768e-012	-4.46238e-012	-3.54124e-012	-2.79467e-012	-2.16707e-012	-1.72354e-012	-1.2898e-012	-9.80161e-013	-6.59989e-013	-3.61524e-013	-1.98397e-013	2.60587e-014	1.99075e-013	3.81487e-013	4.70372e-013	6.10706e-013	6.99674e-013	7.88551e-013	8.77336e-013	9.2401e-013	1.06454e-012	1.05961e-012	
FineR40	4.75485e-010	4.6988e-010	-8.94299e-012	-6.86123e-012	-5.28032e-012	-4.11645e-012	-3.2368e-012	-2.52201e-012	-1.90521e-012	-1.42015e-012	-9.96097e-013	-6.34381e-013	-3.5553e-013	-5.67483e-014	1.48808e-013	3.64194e-013	5.47296e-013	6.36694e-013	7.68069e-013	9.18551e-013	1.00774e-012	1.10658e-012	1.1958e-012	1.28525e-012	1.33241e-012	1.41227e-012	
FineR50	4.81096e-010	4.63818e-010	-8.79646e-012	-6.68888e-012	-5.15155e-012	-3.94736e-012	-3.06901e-012	-2.32324e-012	-1.70627e-012	-1.21075e-012	-8.28254e-013	-4.76291e-013	-1.35592e-013	1.43941e-013	3.17577e-013	4.91356e-013	7.16655e-013	7.96882e-013	9.47507e-013	1.03729e-012	1.22055e-012	1.31041e-012	1.39998e-012	1.45674e-012	1.57922e-012	1.63611e-012	
FineR60	5.11636e-010	4.89109e-010	-8.63883e-012	-6.53213e-012	-5.02423e-012	-3.86211e-012	-2.95348e-012	-2.19745e-012	-1.58059e-012	-1.12669e-012	-7.02478e-013	-3.92149e-013	-6.12342e-014	2.38013e-013	4.34327e-013	6.17888e-013	8.01478e-013	9.75405e-013	1.02309e-012	1.11308e-012	1.29653e-012	1.39594e-012	1.48567e-012	1.5756e-012	1.66521e-012	1.70352e-012	
FineR70	4.93074e-010	4.72294e-010	-8.64348e-012	-6.53857e-012	-4.95025e-012	-3.73651e-012	-2.86944e-012	-2.16538e-012	-1.49666e-012	-1.09454e-012	-6.28691e-013	-2.66506e-013	1.28522e-014	2.60647e-013	5.18431e-013	6.50615e-013	8.66684e-013	1.00842e-012	1.14996e-012	1.23993e-012	1.32977e-012	1.41972e-012	1.5614e-012	1.65147e-012	1.69924e-012	1.70464e-012	
FineR80	4.79445e-010	4.65598e-010	-8.59821e-012	-6.45363e-012	-4.95847e-012	-3.74533e-012	-2.87863e-012	-2.10269e-012	-1.51662e-012	-1.01092e-012	-5.96803e-013	-2.76161e-013	4.49724e-014	3.02705e-013	5.08918e-013	7.25029e-013	9.50812e-013	1.04108e-012	1.14081e-012	1.27281e-012	1.41453e-012	1.50459e-012	1.5526e-012	1.64276e-012	1.74216e-012	1.78067e-012	
FineR90	4.82029e-010	4.81513e-010	-8.6055e-012	-6.50274e-012	-4.92682e-012	-3.71375e-012	-2.84705e-012	-2.10174e-012	-1.47455e-012	-9.89295e-013	-6.0652e-013	-2.85974e-013	3.52433e-014	2.93031e-013	5.41119e-013	7.15454e-013	9.41301e-013	1.03164e-012	1.17338e-012	1.26352e-012	1.36316e-012	1.49543e-012	1.58547e-012	1.68501e-012	1.72362e-012	1.77148e-012	
FineR100	4.9294e-010	4.89058e-010	-8.62664e-012	-6.51182e-012	-4.93623e-012	-3.72338e-012	-2.80495e-012	-2.11157e-012	-1.48441e-012	-1.04076e-012	-6.16379e-013	-2.54069e-013	3.53458e-014	2.83265e-013	5.41193e-013	7.05763e-013	8.89662e-013	1.02205e-012	1.16384e-012	1.25403e-012	1.38622e-012	1.43424e-012	1.58546e-012	1.6757e-012	1.7563e-012	1.76224e-012	
FineR110	4.83194e-010	4.88387e-010	-8.66334e-012	-6.56178e-012	-4.94566e-012	-3.73303e-012	-2.85601e-012	-2.16281e-012	-1.52552e-012	-1.05063e-012	-6.67907e-013	-3.05642e-013	-1.62536e-014	3.15264e-013	4.79742e-013	7.37828e-013	8.8001e-013	1.06389e-012	1.15428e-012	1.28644e-012	1.34427e-012	1.47639e-012	1.56673e-012	1.61481e-012	1.7566e-012	1.75297e-012	
FineR120	5.11282e-010	4.60289e-010	-8.68578e-012	-6.58369e-012	-4.99714e-012	-3.73229e-012	-2.86603e-012	-2.17304e-012	-1.54592e-012	-1.06071e-012	-6.36257e-013	-3.15546e-013	1.56494e-014	2.95596e-013	5.21625e-013	6.9595e-013	8.7024e-013	9.70244e-013	1.14457e-012	1.2445e-012	1.33461e-012	1.46674e-012	1.51492e-012	1.6052e-012	1.70477e-012	1.7527e-012	
FineR130	4.60183e-010	4.64829e-010	-8.69566e-012	-6.58168e-012	-4.99564e-012	-3.74232e-012	-2.86549e-012	-2.18304e-012	-1.55591e-012	-1.10202e-012	-6.36138e-013	-3.25485e-013	-3.59988e-014	2.53766e-013	4.69914e-013	6.44307e-013	8.60595e-013	1.00254e-012	1.14454e-012	1.2348e-012	1.32515e-012	1.46672e-012	1.51491e-012	1.60521e-012	1.69518e-012	1.74342e-012	
FineR140	4.74398e-010	4.56003e-010	-8.73432e-012	-6.63306e-012	-5.05815e-012	-3.84579e-012	-2.88638e-012	-2.18266e-012	-1.59712e-012	-1.11205e-012	-6.87724e-013	-3.67117e-013	-4.58843e-014	2.43906e-013	4.60158e-013	6.76346e-013	8.18472e-013	9.92792e-013	1.08325e-012	1.23461e-012	1.28281e-012	1.41493e-012	1.46312e-012	1.55339e-012	1.68585e-012	1.73384e-012	
FineR150	4.73668e-010	4.79755e-010	-8.78556e-012	-6.67246e-012	-5.05712e-012	-3.84504e-012	-2.92711e-012	-2.23405e-012	-1.60711e-012	-1.16358e-012	-7.39301e-013	-4.18728e-013	-4.58891e-014	2.02094e-013	4.08452e-013	5.92492e-013	8.50684e-013	9.41184e-013	1.12512e-012	1.18303e-012	1.31526e-012	1.36337e-012	1.45349e-012	1.54378e-012	1.64364e-012	1.68229e-012	
FineR160	4.79932e-010	4.63838e-010	-8.83607e-012	-6.64242e-012	-5.05664e-012	-3.84466e-012	-2.93737e-012	-2.24445e-012	-1.61737e-012	-1.1219e-012	-7.3922e-013	-3.76991e-013	-9.75327e-014	1.92223e-013	4.08386e-013	6.24622e-013	7.57107e-013	9.4104e-013	1.04102e-012	1.17317e-012	1.31506e-012	1.35373e-012	1.4017e-012	1.49197e-012	1.63376e-012	1.63017e-012	
FineR170	5.00568e-010	4.70761e-010	-8.83534e-012	-6.73462e-012	-5.1491e-012	-3.94811e-012	-2.97809e-012	-2.32679e-012	-1.70003e-012	-1.22525e-012	-7.49286e-013	-4.80323e-013	-1.49216e-013	1.40549e-013	3.56696e-013	5.72907e-013	7.47239e-013	8.89297e-013	1.03116e-012	1.13109e-012	1.26329e-012	1.30194e-012	1.40147e-012	1.49173e-012	1.53975e-012	1.6299e-012	
FineR180	4.45268e-010	4.74072e-010	-8.85907e-012	-6.73402e-012	-5.17117e-012	-3.94772e-012	-3.02991e-012	-2.32654e-012	-1.71029e-012	-1.22525e-012	-8.00848e-013	-4.80272e-013	-1.59143e-013	1.40521e-013	3.4687e-013	5.21213e-013	7.47124e-013	8.37582e-013	9.79571e-013	1.12141e-012	1.21153e-012	1.30173e-012	1.40147e-012	1.48211e-012	1.53975e-012	1.57837e-012	
FineR190	4.72231e-010	4.65242e-010	-8.89895e-012	-6.78622e-012	-5.15964e-012	-3.94772e-012	-3.04048e-012	-2.33694e-012	-1.7101e-012	-1.23527e-012	-8.52537e-013	-4.90264e-013	-1.59131e-013	8.88422e-014	2.95184e-013	5.21131e-013	7.37375e-013	8.37452e-013	9.69872e-013	1.06e-012	1.20188e-012	1.29209e-012	1.34969e-012	1.48187e-012	1.53014e-012	1.5781e-012	
FineR200	5.10061e-010	4.74254e-010	-8.91081e-012	-6.79761e-012	-5.17018e-012	-4.01039e-012	-3.08141e-012	-2.38871e-012	-1.77209e-012	-1.27667e-012	-8.5244e-013	-5.31894e-013	-2.525e-013	8.88212e-014	2.95135e-013	5.11346e-013	7.27545e-013	8.27731e-013	9.27699e-013	1.05983e-012	1.20169e-012	1.24976e-012	1.29791e-012	1.38814e-012	1.47808e-012	1.52627e-012	
FineR210	5.07169e-010	4.61079e-010	-8.9633e-012	-6.84919e-012	-5.22219e-012	-3.99921e-012	-3.08109e-012	-2.37779e-012	-1.77189e-012	-1.28682e-012	-9.04121e-013	-5.41884e-013	-2.10789e-013	3.71497e-014	2.43457e-013	4.69369e-013	6.43712e-013	7.76023e-013	9.18002e-013	1.01777e-012	1.1596e-012	1.198e-012	1.33022e-012	1.42046e-012	1.47808e-012	1.52601e-012	
FineR220	4.88923e-010	4.66381e-010	-8.95069e-012	-6.84919e-012	-5.26318e-012	-4.05111e-012	-3.14379e-012	-2.39884e-012	-1.81335e-012	-1.32836e-012	-9.04121e-013	-5.93557e-013	-2.94217e-013	-4.66217e-015	2.43415e-013	4.59587e-013	5.92018e-013	7.75902e-013	8.7584e-013	1.00794e-012	1.14976e-012	1.20744e-012	1.25556e-012	1.33612e-012	1.43564e-012	1.47419e-012	
FineR230	4.75453e-010	4.67903e-010	-9.00317e-012	-6.88938e-012	-5.27421e-012	-4.09182e-012	-3.14345e-012	-2.43994e-012	-1.82361e-012	-1.3799e-012	-9.04017e-013	-5.83503e-013	-2.62432e-013	-1.45289e-014	2.01566e-013	4.07906e-013	6.43527e-013	7.33804e-013	9.08039e-013	1.00794e-012	1.10768e-012	1.19781e-012	1.24571e-012	1.33566e-012	1.42604e-012	1.47394e-012	
FineR240	4.91107e-010	4.99526e-010	-9.05565e-012	-6.88938e-012	-5.30365e-012	-4.10258e-012	-3.1847e-012	-2.48129e-012	-1.86486e-012	-1.3799e-012	-9.14111e-013	-6.35169e-013	-3.04174e-013	-5.63267e-014	2.01566e-013	4.07906e-013	5.91842e-013	7.33804e-013	9.08039e-013	9.65888e-013	1.09802e-012	1.14606e-012	1.23608e-012	1.33566e-012	1.38384e-012	1.43172e-012	
FineR250	4.77782e-010	4.60184e-010	-9.04303e-012	-6.90076e-012	-5.31468e-012	-4.09141e-012	-3.18436e-012	-2.49169e-012	-1.86486e-012	-1.37974e-012	-9.45519e-013	-6.45156e-013	-3.14095e-013	-6.61934e-014	1.59684e-013	3.65947e-013	5.91749e-013	7.33804e-013	8.65882e-013	9.56218e-013	1.05594e-012	1.10394e-012	1.23588e-012	1.29349e-012	1.38361e-012	1.47365e-012	
MinCout:	-4.66217e-015	FineR:	220	FineC:	130

	FineC120	FineC121	FineC122	FineC123	FineC124	FineC125	FineC126	FineC127	FineC128	FineC129	FineC130	FineC131	FineC132	FineC133	FineC134	FineC135	FineC136	FineC137	FineC138	FineC139	FineC140	
FineR240	-3.04174e-013	-2.52582e-013	-2.5264e-013	-2.42771e-013	-1.69238e-013	-1.07754e-013	-1.17681e-013	-1.07833e-013	-5.62498e-014	-5.62894e-014	-5.63267e-014	-4.74614e-015	3.70307e-014	4.68414e-014	8.85901e-014	9.83868e-014	1.40194e-013	1.49981e-013	1.91755e-013	2.01528e-013	2.43366e-013	
FineR241	-3.04174e-013	-2.52582e-013	-2.5264e-013	-2.52675e-013	-2.11003e-013	-2.01144e-013	-1.07791e-013	-1.07833e-013	-5.62498e-014	-5.62894e-014	-5.63267e-014	-4.74614e-015	5.06457e-015	4.68414e-014	8.85901e-014	9.83868e-014	1.40194e-013	1.49981e-013	1.49962e-013	2.01528e-013	2.43366e-013	
FineR242	-2.62463e-013	-2.94291e-013	-2.62549e-013	-2.52675e-013	-1.5933e-013	-1.59376e-013	-1.17681e-013	-1.07833e-013	-6.61235e-014	-5.62894e-014	-5.63267e-014	-4.74614e-015	4.68694e-014	4.68414e-014	9.84102e-014	9.83868e-014	1.5e-013	1.49981e-013	1.49962e-013	1.59738e-013	2.43324e-013	
FineR243	-3.04144e-013	-3.04207e-013	-2.52617e-013	-2.52675e-013	-1.5933e-013	-1.59376e-013	-7.59342e-014	-1.07833e-013	-6.61235e-014	-5.62894e-014	-5.63267e-014	-4.74614e-015	4.68694e-014	4.68414e-014	8.85692e-014	9.83868e-014	1.40166e-013	1.40149e-013	1.49932e-013	1.49913e-013	2.43324e-013	
FineR244	-2.94226e-013	-3.04207e-013	-2.52617e-013	-2.52675e-013	-2.10985e-013	-2.01144e-013	-1.17674e-013	-1.07833e-013	-5.62521e-014	-5.62894e-014	-4.64647e-014	-4.74614e-015	4.68694e-014	4.68414e-014	9.84102e-014	1.4021e-013	1.40166e-013	1.40149e-013	2.01594e-013	1.49913e-013	2.53139e-013	
FineR245	-2.94226e-013	-3.04207e-013	-2.62549e-013	-2.1092e-013	-1.5933e-013	-1.59376e-013	-1.17681e-013	-1.07833e-013	-6.61235e-014	-5.62894e-014	-4.64647e-014	-4.74614e-015	3.70167e-014	4.68414e-014	9.84102e-014	1.4021e-013	1.81982e-013	1.40149e-013	1.49932e-013	1.91755e-013	2.43324e-013	
FineR246	-3.04144e-013	-3.04207e-013	-2.62549e-013	-2.52675e-013	-1.5933e-013	-1.59376e-013	-1.17681e-013	-1.1772e-013	-6.61235e-014	-5.62894e-014	-5.63267e-014	-4.65043e-014	4.68694e-014	4.68414e-014	8.85901e-014	9.83868e-014	1.40194e-013	1.49981e-013	1.40133e-013	1.91755e-013	2.53139e-013	
FineR247	-3.04174e-013	-3.04207e-013	-2.62549e-013	-2.52675e-013	-1.69238e-013	-1.59376e-013	-1.17681e-013	-1.07833e-013	-6.61235e-014	-5.62894e-014	-4.64647e-014	-4.74614e-015	3.70307e-014	4.68414e-014	8.85901e-014	1.4021e-013	1.81982e-013	1.40149e-013	1.49932e-013	1.91755e-013	2.43324e-013	
FineR248	-3.04144e-013	-2.94291e-013	-2.20795e-013	-2.1092e-013	-1.5933e-013	-1.59376e-013	-1.07791e-013	-1.07833e-013	-6.61235e-014	-5.62894e-014	-5.63267e-014	-4.74614e-015	4.68694e-014	4.68414e-014	9.84102e-014	1.4021e-013	1.5e-013	1.49981e-013	1.49962e-013	2.0158e-013	2.43324e-013	
FineR249	-2.72353e-013	-2.62463e-013	-2.62549e-013	-2.1092e-013	-1.69238e-013	-1.59376e-013	-1.17681e-013	-1.07833e-013	-6.61235e-014	-5.62894e-014	-5.63267e-014	-4.74614e-015	4.68694e-014	3.6991e-014	9.84102e-014	9.83868e-014	1.40166e-013	1.49981e-013	1.49962e-013	1.91755e-013	2.33548e-013	
FineR250	-3.04174e-013	-3.04207e-013	-2.62549e-013	-2.52675e-013	-1.59341e-013	-1.69282e-013	-1.07791e-013	-1.07833e-013	-6.61235e-014	-5.62894e-014	-5.63267e-014	-4.65043e-014	4.68694e-014	4.68414e-014	5.66427e-014	9.83868e-014	1.5e-013	1.49981e-013	1.49962e-013	1.49913e-013	2.33548e-013	
FineR251	-3.14095e-013	-3.04207e-013	-2.62549e-013	-2.52675e-013	-2.11003e-013	-1.59376e-013	-1.17681e-013	-1.07833e-013	-6.61235e-014	-5.62894e-014	-5.63267e-014	-1.46035e-014	3.70307e-014	3.6991e-014	8.85901e-014	8.85481e-014	1.40166e-013	1.40149e-013	1.49932e-013	1.49913e-013	2.53139e-013	
FineR252	-3.14095e-013	-3.04207e-013	-2.62549e-013	-2.1092e-013	-1.5933e-013	-1.59376e-013	-1.07791e-013	-1.07833e-013	-6.61235e-014	-5.62894e-014	-4.64647e-014	-5.63664e-014	4.68694e-014	3.6991e-014	4.6797e-014	9.83868e-014	1.40166e-013	1.40149e-013	1.49932e-013	1.49913e-013	2.43324e-013	
FineR253	-3.14095e-013	-3.04207e-013	-2.62549e-013	-2.52675e-013	-1.5933e-013	-1.59376e-013	-1.07791e-013	-1.07833e-013	-5.62521e-014	-5.62894e-014	-5.63267e-014	-4.74614e-015	3.70307e-014	4.68414e-014	9.84102e-014	9.83868e-014	9.834e-014	1.40149e-013	1.49962e-013	1.49913e-013	2.33548e-013	
FineR254	-3.14095e-013	-3.04207e-013	-2.20795e-013	-2.52675e-013	-1.5933e-013	-1.59376e-013	-1.07791e-013	-1.07833e-013	-6.61235e-014	-5.62894e-014	-5.63267e-014	-4.74614e-015	3.70307e-014	4.68414e-014	9.84102e-014	9.83868e-014	1.40166e-013	1.49981e-013	1.59759e-013	1.59738e-013	2.43366e-013	
FineR255	-3.04174e-013	-2.62463e-013	-2.62549e-013	-2.10952e-013	-1.5933e-013	-1.59376e-013	-1.17681e-013	-1.07833e-013	-6.61235e-014	-6.61584e-014	-5.63267e-014	-4.74614e-015	3.70307e-014	4.68414e-014	1.30411e-013	1.4021e-013	1.40194e-013	1.40149e-013	1.91802e-013	2.33553e-013	2.43324e-013	
FineR255	-3.04144e-013	-3.04207e-013	-2.62549e-013	-2.52675e-013	-1.5933e-013	-1.59376e-013	-1.17681e-013	-1.07833e-013	-6.61235e-014	-5.62894e-014	-5.63267e-014	-4.74614e-015	3.70307e-014	4.68414e-014	8.85901e-014	1.4021e-013	1.40166e-013	1.40149e-013	1.40133e-013	1.49913e-013	2.33548e-013	
FineR255	-3.04174e-013	-3.04207e-013	-2.62549e-013	-2.52675e-013	-1.5933e-013	-1.59376e-013	-1.07791e-013	-1.07833e-013	-6.61235e-014	-5.62894e-014	-5.63267e-014	-4.74614e-015	3.70307e-014	4.68414e-014	8.85901e-014	1.4021e-013	1.30357e-013	1.40149e-013	1.49932e-013	2.43373e-013	2.43324e-013	
FineR255	-2.94226e-013	-3.04207e-013	-2.62549e-013	-2.1092e-013	-1.5933e-013	-1.59376e-013	-1.17681e-013	-1.07833e-013	-6.61235e-014	-5.62894e-014	-5.63267e-014	-1.45965e-014	3.70307e-014	4.68414e-014	8.85692e-014	8.85481e-014	1.40166e-013	1.40149e-013	1.49932e-013	1.59738e-013	2.33548e-013	
FineR255	-3.14095e-013	-3.04207e-013	-2.62549e-013	-2.52675e-013	-1.69238e-013	-1.59376e-013	-1.17681e-013	-1.07833e-013	-6.61235e-014	-5.62894e-014	-5.63267e-014	-4.65043e-014	4.68694e-014	3.6991e-014	7.87468e-014	9.83868e-014	8.8527e-014	1.40149e-013	1.40133e-013	1.49913e-013	2.33548e-013	
FineR255	-3.04144e-013	-3.04207e-013	-2.52617e-013	-2.52675e-013	-1.69238e-013	-1.59376e-013	-1.17681e-013	-1.07833e-013	-6.61235e-014	-5.62894e-014	-5.63267e-014	-1.45965e-014	3.70307e-014	3.6991e-014	4.6797e-014	8.85481e-014	1.40166e-013	1.40149e-013	1.40133e-013	1.49913e-013	2.43324e-013	
MinCout:	-4.74614e-015	FineR:	240	FineC:	131

