	CoarseC0	CoarseC10	CoarseC20	CoarseC30	CoarseC40	CoarseC50	CoarseC60	CoarseC70	CoarseC80	CoarseC90	CoarseC100	CoarseC110	CoarseC120	CoarseC130	CoarseC140	CoarseC150	CoarseC160	CoarseC170	CoarseC180	CoarseC190	CoarseC200	CoarseC210	CoarseC220	CoarseC230	CoarseC240	CoarseC250	
CoarseR0	-3.10069e-010	-2.94417e-010	-2.82144e-010	-2.74018e-010	-2.68121e-010	-2.63694e-010	-2.60257e-010	-2.57698e-010	-2.55604e-010	-2.5378e-010	-2.52582e-010	-2.52187e-010	-2.51605e-010	-2.51144e-010	-2.51045e-010	-2.51716e-010	-2.52289e-010	-2.52576e-010	-2.52595e-010	-2.52256e-010	-2.51534e-010	-2.50543e-010	-2.4922e-010	-2.47726e-010	-2.46031e-010	-2.44184e-010	
CoarseR10	-2.34766e-010	-2.21681e-010	-2.12919e-010	-2.04928e-010	-2.00105e-010	-1.96487e-010	-1.94476e-010	-1.93253e-010	-1.92592e-010	-1.92106e-010	-1.92148e-010	-1.93199e-010	-1.94995e-010	-1.96826e-010	-1.98522e-010	-1.99806e-010	-2.01031e-010	-2.01841e-010	-2.025e-010	-2.02778e-010	-2.02855e-010	-2.02632e-010	-2.02307e-010	-2.01665e-010	-2.00947e-010	-2.00254e-010	
CoarseR20	-1.75415e-010	-1.64187e-010	-1.57063e-010	-1.50641e-010	-1.47552e-010	-1.45363e-010	-1.44045e-010	-1.43475e-010	-1.4374e-010	-1.45445e-010	-1.47663e-010	-1.49912e-010	-1.52177e-010	-1.54388e-010	-1.56497e-010	-1.58305e-010	-1.60212e-010	-1.61751e-010	-1.63176e-010	-1.64344e-010	-1.65397e-010	-1.66366e-010	-1.67774e-010	-1.69153e-010	-1.70218e-010	-1.71096e-010	
CoarseR30	4.61243e-010	-1.18695e-010	-1.1301e-010	-1.09226e-010	-1.05739e-010	-1.04292e-010	-1.03868e-010	-1.05246e-010	-1.07324e-010	-1.09485e-010	-1.11956e-010	-1.14592e-010	-1.17133e-010	-1.19882e-010	-1.22498e-010	-1.25128e-010	-1.27692e-010	-1.30141e-010	-1.32563e-010	-1.35449e-010	-1.3878e-010	-1.41807e-010	-1.44261e-010	-1.4608e-010	-1.47472e-010	-1.48459e-010	
CoarseR40	4.38814e-010	4.74422e-010	-7.89786e-011	-7.59854e-011	-7.43768e-011	-7.30159e-011	-7.41903e-011	-7.5813e-011	-7.8015e-011	-8.03229e-011	-8.30721e-011	-8.59685e-011	-8.89045e-011	-9.20766e-011	-9.53377e-011	-9.86567e-011	-1.02274e-010	-1.06435e-010	-1.11425e-010	-1.16048e-010	-1.19873e-010	-1.22951e-010	-1.25525e-010	-1.27576e-010	-1.29127e-010	-1.30369e-010	
CoarseR50	4.1343e-010	4.27321e-010	4.46591e-010	-4.98624e-011	-4.95946e-011	-5.02358e-011	-5.14134e-011	-5.18629e-011	-5.40614e-011	-5.65167e-011	-5.93079e-011	-6.24993e-011	-6.59603e-011	-6.96187e-011	-7.36369e-011	-7.81506e-011	-8.40061e-011	-9.02982e-011	-9.5585e-011	-1.00277e-010	-1.04009e-010	-1.07299e-010	-1.09903e-010	-1.1216e-010	-1.13874e-010	-1.15315e-010	
CoarseR60	3.73035e-010	4.10726e-010	4.32473e-010	4.30256e-010	-2.99953e-011	-3.05759e-011	-3.18378e-011	-3.34746e-011	-3.44285e-011	-3.70246e-011	-4.00144e-011	-4.35456e-011	-4.73099e-011	-5.17332e-011	-5.69985e-011	-6.40032e-011	-7.0976e-011	-7.70295e-011	-8.23444e-011	-8.68737e-011	-9.07428e-011	-9.40263e-011	-9.68213e-011	-9.9139e-011	-1.00995e-010	-1.02607e-010	
CoarseR70	3.94256e-010	4.29584e-010	4.37554e-010	4.5596e-010	4.93219e-010	-1.46085e-011	-1.55207e-011	-1.72006e-011	-1.93778e-011	-2.07911e-011	-2.40268e-011	-2.77547e-011	-3.21634e-011	-3.76908e-011	-4.51862e-011	-5.28548e-011	-5.97641e-011	-6.56723e-011	-7.08622e-011	-7.53989e-011	-7.92665e-011	-8.26639e-011	-8.55435e-011	-8.78982e-011	-8.99417e-011	-9.15784e-011	
CoarseR80	4.03015e-010	4.25134e-010	4.66461e-010	5.03274e-010	5.02524e-010	-1.42232e-012	-2.3052e-012	-3.87148e-012	-5.94642e-012	-8.70009e-012	-1.06812e-011	-1.4803e-011	-1.99193e-011	-2.72828e-011	-3.55571e-011	-4.31776e-011	-4.98346e-011	-5.57349e-011	-6.09319e-011	-6.54658e-011	-6.93788e-011	-7.26631e-011	-7.55441e-011	-7.80306e-011	-8.01542e-011	-8.19278e-011	
CoarseR90	4.27647e-010	4.42104e-010	5.05783e-010	5.21038e-010	5.34221e-010	5.55391e-010	8.35889e-012	6.92819e-012	4.73885e-012	1.40579e-012	-1.97457e-012	-4.19953e-012	-1.0589e-011	-1.88564e-011	-2.71158e-011	-3.45159e-011	-4.11705e-011	-4.70478e-011	-5.21567e-011	-5.66913e-011	-6.0685e-011	-6.41611e-011	-6.70904e-011	-6.96566e-011	-7.17556e-011	-7.35355e-011	
CoarseR100	3.95621e-010	4.45708e-010	4.77024e-010	4.79716e-010	4.94968e-010	4.87557e-010	1.71749e-011	1.60163e-011	1.41251e-011	1.14365e-011	7.74271e-012	2.99917e-012	-2.89569e-012	-1.14545e-011	-1.95702e-011	-2.6816e-011	-3.33896e-011	-3.92431e-011	-4.43914e-011	-4.89292e-011	-5.29969e-011	-5.64206e-011	-5.9534e-011	-6.21242e-011	-6.4428e-011	-6.62998e-011	
CoarseR110	4.13256e-010	4.30828e-010	4.65905e-010	4.70133e-010	4.78787e-010	5.00782e-010	2.43895e-011	2.33555e-011	2.15267e-011	1.89406e-011	1.54273e-011	1.02385e-011	3.75225e-012	-4.92323e-012	-1.27512e-011	-1.98565e-011	-2.64519e-011	-3.23318e-011	-3.74881e-011	-4.21014e-011	-4.62014e-011	-4.97387e-011	-5.28484e-011	-5.5519e-011	-5.78549e-011	-5.98565e-011	
CoarseR120	3.98146e-010	4.33683e-010	4.33631e-010	4.56912e-010	4.7028e-010	5.53488e-010	3.02577e-011	2.95184e-011	2.78533e-011	2.54853e-011	2.19112e-011	1.63186e-011	9.4762e-012	1.11358e-012	-6.80055e-012	-1.38758e-011	-2.02953e-011	-2.61036e-011	-3.13548e-011	-3.6052e-011	-4.01505e-011	-4.37709e-011	-4.69893e-011	-4.97595e-011	-5.21074e-011	-5.41968e-011	
CoarseR130	3.77019e-010	4.03623e-010	4.30413e-010	4.45728e-010	4.96443e-010	5.37561e-010	3.48846e-011	3.43825e-011	3.30119e-011	3.07028e-011	2.71681e-011	2.13742e-011	1.46917e-011	6.31287e-012	-1.32306e-012	-8.4245e-012	-1.49076e-011	-2.07211e-011	-2.59694e-011	-3.06672e-011	-3.49054e-011	-3.85821e-011	-4.18132e-011	-4.47171e-011	-4.71814e-011	-4.92751e-011	
CoarseR140	3.60204e-010	4.03815e-010	4.49057e-010	4.74881e-010	5.05611e-010	5.47933e-010	3.86679e-011	3.83949e-011	3.70068e-011	3.49815e-011	3.14458e-011	2.57951e-011	1.92657e-011	1.10175e-011	3.36023e-012	-3.64538e-012	-1.01194e-011	-1.5992e-011	-2.12595e-011	-2.6016e-011	-3.02736e-011	-3.40626e-011	-3.74441e-011	-4.0304e-011	-4.29558e-011	-4.51638e-011	
CoarseR150	3.65702e-010	4.03466e-010	4.42106e-010	4.80064e-010	5.11058e-010	5.41488e-010	4.12081e-011	4.11696e-011	4.02165e-011	3.8335e-011	3.51497e-011	2.9842e-011	2.34199e-011	1.52211e-011	7.5486e-012	5.18498e-013	-5.99482e-012	-1.18402e-011	-1.71693e-011	-2.20047e-011	-2.62784e-011	-3.01618e-011	-3.35984e-011	-3.66414e-011	-3.92351e-011	-4.15361e-011	
CoarseR160	3.17349e-010	4.03373e-010	4.47647e-010	4.96756e-010	5.30087e-010	5.14155e-010	4.30374e-011	4.32195e-011	4.23751e-011	4.07747e-011	3.79523e-011	3.30863e-011	2.69833e-011	1.88779e-011	1.12086e-011	4.184e-012	-2.41469e-012	-8.3347e-012	-1.37309e-011	-1.86562e-011	-2.28715e-011	-2.67855e-011	-3.03395e-011	-3.34667e-011	-3.61106e-011	-3.85959e-011	
CoarseR170	3.50155e-010	4.03613e-010	4.52581e-010	5.10162e-010	5.28131e-010	5.26905e-010	4.43473e-011	4.45042e-011	4.40956e-011	4.26273e-011	4.01119e-011	3.58265e-011	3.01166e-011	2.20478e-011	1.43921e-011	7.34335e-012	6.83223e-013	-5.2823e-012	-1.07351e-011	-1.56857e-011	-2.01412e-011	-2.41114e-011	-2.76234e-011	-3.0743e-011	-3.36004e-011	-3.59997e-011	
CoarseR180	3.56457e-010	4.12204e-010	4.54138e-010	4.99074e-010	4.97901e-010	5.1916e-010	4.4826e-011	4.53862e-011	4.50526e-011	4.39132e-011	4.14951e-011	3.77758e-011	3.2632e-011	2.47856e-011	1.70272e-011	9.8733e-012	3.28034e-012	-2.83327e-012	-8.29903e-012	-1.33718e-011	-1.78686e-011	-2.18954e-011	-2.55151e-011	-2.87635e-011	-3.14864e-011	-3.40412e-011	
CoarseR190	3.65115e-010	4.20498e-010	4.42856e-010	4.74785e-010	4.83946e-010	4.7759e-010	4.51392e-011	4.57792e-011	4.55379e-011	4.45804e-011	4.25702e-011	4.03942e-011	3.45878e-011	2.69755e-011	1.9229e-011	1.20752e-011	5.30254e-012	-8.34018e-013	-6.41675e-012	-1.14772e-011	-1.59911e-011	-2.00934e-011	-2.3809e-011	-2.70495e-011	-3.00308e-011	-3.25489e-011	
CoarseR200	3.941e-010	4.24044e-010	4.30129e-010	4.94901e-010	4.90606e-010	4.99249e-010	4.49222e-011	4.56299e-011	4.57502e-011	4.48579e-011	4.3031e-011	4.12468e-011	3.59941e-011	2.88828e-011	2.10891e-011	1.36839e-011	6.92357e-012	7.09418e-013	-4.89333e-012	-1.0045e-011	-1.46326e-011	-1.88032e-011	-2.25715e-011	-2.58349e-011	-2.87794e-011	-3.14575e-011	
CoarseR210	3.81346e-010	4.31117e-010	4.36997e-010	4.72584e-010	4.88288e-010	4.82731e-010	4.44899e-011	4.52763e-011	4.54344e-011	4.47529e-011	4.32309e-011	4.15959e-011	3.69984e-011	3.01532e-011	2.24144e-011	1.51005e-011	8.19005e-012	1.93799e-012	-3.83071e-012	-8.97336e-012	-1.36462e-011	-1.79095e-011	-2.16734e-011	-2.50827e-011	-2.80099e-011	-3.0607e-011	
CoarseR220	3.87068e-010	4.35843e-010	4.45203e-010	4.53093e-010	4.89403e-010	5.12272e-010	4.37862e-011	4.47824e-011	4.49962e-011	4.4397e-011	4.30501e-011	4.16431e-011	3.76563e-011	3.10722e-011	2.34555e-011	1.60267e-011	9.08704e-012	2.771e-012	-3.02027e-012	-8.31247e-012	-1.29994e-011	-1.72819e-011	-2.11399e-011	-2.45689e-011	-2.75704e-011	-3.02099e-011	
CoarseR230	3.84712e-010	4.02522e-010	4.53935e-010	4.64176e-010	4.9181e-010	5.20973e-010	4.2969e-011	4.41776e-011	4.43294e-011	4.38564e-011	4.25584e-011	4.14189e-011	3.77459e-011	3.16123e-011	2.41941e-011	1.6794e-011	9.69201e-012	3.3329e-012	-2.47834e-012	-7.90532e-012	-1.26693e-011	-1.69672e-011	-2.08456e-011	-2.43398e-011	-2.73361e-011	-2.99908e-011	
CoarseR240	3.98071e-010	4.4371e-010	4.56915e-010	4.53456e-010	4.7332e-010	5.11992e-010	4.21143e-011	4.32221e-011	4.35266e-011	4.31295e-011	4.1935e-011	4.0919e-011	3.75868e-011	3.18158e-011	2.46497e-011	1.71416e-011	1.01146e-011	3.64464e-012	-2.22144e-012	-7.56924e-012	-1.24797e-011	-1.68563e-011	-2.0704e-011	-2.42316e-011	-2.72943e-011	-3.00566e-011	
CoarseR250	4.08091e-010	4.05512e-010	4.47063e-010	4.60202e-010	4.85367e-010	4.99361e-010	4.1099e-011	4.22584e-011	4.26333e-011	4.22321e-011	4.1224e-011	4.02715e-011	3.71412e-011	3.17747e-011	2.48303e-011	1.73305e-011	1.0277e-011	3.72636e-012	-2.15097e-012	-7.59737e-012	-1.24599e-011	-1.69389e-011	-2.08036e-011	-2.43893e-011	-2.74891e-011	-3.01971e-011	
MinCout:	5.18498e-013	CoarseR:	150	CoarseC:	150

	CoarseC40	CoarseC41	CoarseC42	CoarseC43	CoarseC44	CoarseC45	CoarseC46	CoarseC47	CoarseC48	CoarseC49	CoarseC50	CoarseC51	CoarseC52	CoarseC53	CoarseC54	CoarseC55	CoarseC56	CoarseC57	CoarseC58	CoarseC59	CoarseC60	
CoarseR70	-1.29357e-011	-1.30689e-011	-1.30628e-011	-1.30471e-011	-1.30869e-011	-1.1851e-011	-1.19361e-011	-1.19862e-011	-1.2068e-011	-1.20602e-011	-1.21779e-011	-1.21992e-011	-1.23171e-011	-1.23746e-011	-1.2431e-011	-1.24989e-011	-1.26467e-011	-1.27389e-011	-1.28802e-011	-1.30003e-011	-1.31314e-011	
CoarseR71	5.02129e-010	-1.15582e-011	-1.15989e-011	-1.16389e-011	-1.16644e-011	-1.04732e-011	-1.04774e-011	-1.05653e-011	-1.06499e-011	-1.06889e-011	-1.06858e-011	-1.07947e-011	-1.08754e-011	-1.09858e-011	-1.10904e-011	-1.11529e-011	-1.1222e-011	-1.13179e-011	-1.13806e-011	-1.1589e-011	-1.16886e-011	
CoarseR72	5.03125e-010	5.03448e-010	-1.01706e-011	-1.02039e-011	-1.0231e-011	-1.03096e-011	-9.09665e-012	-9.14659e-012	-9.22664e-012	-9.23686e-012	-9.35435e-012	-9.35068e-012	-9.51984e-012	-9.60239e-012	-9.65804e-012	-9.73441e-012	-9.87398e-012	-9.89727e-012	-1.00485e-011	-1.01759e-011	-1.02655e-011	
CoarseR73	4.89312e-010	5.10389e-010	-8.9209e-012	-8.9596e-012	-8.89799e-012	-8.96909e-012	-7.81528e-012	-7.84566e-012	-7.89802e-012	-7.94537e-012	-8.02311e-012	-8.02539e-012	-8.15604e-012	-8.27574e-012	-8.34472e-012	-8.42371e-012	-8.5436e-012	-8.68827e-012	-8.7588e-012	-8.8482e-012	-8.94924e-012	
CoarseR74	5.13539e-010	5.07183e-010	5.1378e-010	-7.53251e-012	-7.49627e-012	-7.53002e-012	-6.45518e-012	-6.43809e-012	-6.58786e-012	-6.60562e-012	-6.70713e-012	-6.74506e-012	-6.82835e-012	-6.87839e-012	-6.98422e-012	-7.01728e-012	-7.18284e-012	-7.26472e-012	-7.36422e-012	-7.50865e-012	-7.61348e-012	
CoarseR75	5.13523e-010	4.97054e-010	4.9672e-010	4.92193e-010	-6.14254e-012	-6.1491e-012	-6.12098e-012	-5.07677e-012	-5.12761e-012	-5.20169e-012	-5.2886e-012	-5.34046e-012	-5.45544e-012	-5.5427e-012	-5.65981e-012	-5.69817e-012	-5.8262e-012	-5.89361e-012	-6.02368e-012	-6.16176e-012	-6.27027e-012	
CoarseR76	5.18387e-010	5.2079e-010	4.92765e-010	5.14584e-010	-4.81197e-012	-5.01295e-012	-4.96762e-012	-3.83359e-012	-3.90743e-012	-3.93473e-012	-4.07722e-012	-4.05735e-012	-4.1917e-012	-4.2822e-012	-4.32832e-012	-4.37872e-012	-4.55359e-012	-4.6761e-012	-4.79162e-012	-4.93487e-012	-5.02303e-012	
CoarseR77	4.9302e-010	5.21936e-010	4.99721e-010	5.1918e-010	5.31867e-010	-3.59789e-012	-3.58895e-012	-2.59526e-012	-2.63117e-012	-2.69607e-012	-2.71628e-012	-2.81712e-012	-2.89971e-012	-2.9939e-012	-3.0779e-012	-3.09054e-012	-3.2257e-012	-3.35186e-012	-3.48133e-012	-3.57634e-012	-3.65977e-012	
CoarseR78	5.13002e-010	5.02779e-010	5.00002e-010	5.20088e-010	5.19235e-010	-2.40733e-012	-2.47709e-012	-2.57376e-012	-1.4432e-012	-1.44604e-012	-1.54527e-012	-1.60798e-012	-1.66749e-012	-1.73176e-012	-1.82936e-012	-1.88752e-012	-1.98486e-012	-2.06418e-012	-2.19755e-012	-2.39797e-012	-2.47574e-012	
CoarseR79	5.23544e-010	5.28392e-010	5.05167e-010	5.31002e-010	5.16797e-010	5.32583e-010	5.0566e-010	-1.33457e-012	-1.28479e-012	-2.47348e-013	-3.08295e-013	-3.51424e-013	-4.98228e-013	-5.16268e-013	-6.67517e-013	-7.3009e-013	-8.73378e-013	-9.13793e-013	-1.00905e-012	-1.21334e-012	-1.29399e-012	
CoarseR80	5.27424e-010	5.31032e-010	5.10216e-010	5.17353e-010	5.28979e-010	5.37364e-010	5.4025e-010	-8.0861e-014	-2.05243e-013	9.1332e-013	8.81298e-013	8.43656e-013	7.16232e-013	6.61795e-013	5.66942e-013	5.00352e-013	4.27932e-013	3.00273e-013	2.3427e-013	6.84049e-014	-4.90131e-014	
CoarseR81	5.19627e-010	4.93182e-010	5.40157e-010	5.32495e-010	5.48104e-010	5.23076e-010	5.51313e-010	9.4602e-013	9.87633e-013	9.38539e-013	1.93973e-012	1.94985e-012	1.86053e-012	1.80232e-012	1.72777e-012	1.66655e-012	1.54867e-012	1.45932e-012	1.35667e-012	1.2208e-012	1.18326e-012	
CoarseR82	5.25132e-010	4.93821e-010	5.21768e-010	5.29023e-010	5.40898e-010	5.37295e-010	5.43304e-010	5.33379e-010	2.06684e-012	3.1257e-012	3.09631e-012	2.99912e-012	2.94832e-012	2.92863e-012	2.86902e-012	2.78592e-012	2.68239e-012	2.62259e-012	2.52525e-012	2.35295e-012	2.33636e-012	
CoarseR83	5.17703e-010	5.18065e-010	5.23995e-010	5.17429e-010	5.18842e-010	5.19121e-010	5.1438e-010	5.39092e-010	5.19743e-010	3.18678e-012	4.19539e-012	4.12303e-012	4.11066e-012	4.14398e-012	3.96302e-012	3.97063e-012	3.8111e-012	3.70609e-012	3.64705e-012	3.50454e-012	3.41859e-012	
CoarseR84	4.95594e-010	5.18973e-010	5.20664e-010	5.15138e-010	5.4895e-010	5.26668e-010	5.24701e-010	5.15158e-010	5.38373e-010	5.36321e-012	5.31676e-012	5.27401e-012	5.14076e-012	5.17964e-012	5.13698e-012	5.05567e-012	4.92685e-012	4.83535e-012	4.76364e-012	4.57611e-012	4.52875e-012	
CoarseR85	5.34224e-010	5.05186e-010	5.2179e-010	5.45808e-010	5.45665e-010	5.30946e-010	5.14256e-010	5.29194e-010	5.2916e-010	5.34746e-012	6.33863e-012	6.29171e-012	6.19765e-012	6.14841e-012	6.19613e-012	6.10232e-012	6.03009e-012	5.90802e-012	5.8092e-012	5.70233e-012	5.6007e-012	
CoarseR86	5.26188e-010	5.14571e-010	5.34178e-010	5.45267e-010	5.62982e-010	5.16526e-010	5.45325e-010	5.40415e-010	5.20424e-010	5.2964e-010	6.24563e-012	7.40846e-012	7.25741e-012	7.21423e-012	7.18346e-012	7.20344e-012	7.07685e-012	7.0028e-012	6.88198e-012	6.748e-012	6.7182e-012	
CoarseR87	5.16903e-010	4.95017e-010	5.1343e-010	5.00068e-010	5.19562e-010	5.3832e-010	5.15071e-010	5.35123e-010	5.17074e-010	5.76513e-010	8.37928e-012	8.32449e-012	8.28801e-012	8.19845e-012	8.12236e-012	8.09615e-012	8.09238e-012	7.97451e-012	7.88365e-012	7.77953e-012	7.67038e-012	
CoarseR88	5.34662e-010	5.02205e-010	5.34121e-010	5.37108e-010	5.37983e-010	5.32355e-010	5.31972e-010	5.33046e-010	5.36168e-010	5.41133e-010	5.33234e-010	9.34301e-012	9.2798e-012	9.25334e-012	9.13104e-012	9.07762e-012	9.01885e-012	8.97248e-012	8.84564e-012	8.7299e-012	8.65893e-012	
CoarseR89	5.17308e-010	5.49297e-010	5.08426e-010	5.6832e-010	5.29109e-010	5.18429e-010	5.25272e-010	5.78763e-010	5.38198e-010	5.26037e-010	5.40202e-010	1.02795e-011	1.0203e-011	1.01919e-011	1.009e-011	9.99129e-012	9.93906e-012	9.90661e-012	9.80134e-012	9.64921e-012	9.66067e-012	
CoarseR90	5.49826e-010	5.07193e-010	5.25397e-010	5.4902e-010	5.31748e-010	5.34721e-010	5.34587e-010	5.18487e-010	5.44266e-010	5.25826e-010	5.35572e-010	5.42743e-010	1.11666e-011	1.11334e-011	1.10802e-011	1.10103e-011	1.09126e-011	1.08264e-011	1.08107e-011	1.06555e-011	1.06133e-011	
MinCout:	-4.90131e-014	CoarseR:	80	CoarseC:	60

	FineC0	FineC10	FineC20	FineC30	FineC40	FineC50	FineC60	FineC70	FineC80	FineC90	FineC100	FineC110	FineC120	FineC130	FineC140	FineC150	FineC160	FineC170	FineC180	FineC190	FineC200	FineC210	FineC220	FineC230	FineC240	FineC250	
FineR0	4.37119e-010	4.35642e-010	4.52282e-010	4.61436e-010	4.49551e-010	4.55531e-010	4.43739e-010	4.68387e-010	4.74304e-010	4.60141e-010	4.44949e-010	4.66829e-010	-7.90209e-012	4.44681e-010	4.73828e-010	4.53028e-010	4.62307e-010	-6.70394e-012	4.40504e-010	4.37224e-010	4.4533e-010	4.55118e-010	4.41719e-010	4.36606e-010	4.55591e-010	4.63504e-010	
FineR10	4.61824e-010	4.6206e-010	4.91418e-010	5.17299e-010	4.85048e-010	4.70134e-010	4.87126e-010	4.66866e-010	4.96967e-010	4.75728e-010	4.80084e-010	4.66012e-010	4.7451e-010	4.86922e-010	4.71833e-010	4.63492e-010	4.76504e-010	4.56241e-010	5.01169e-010	4.65413e-010	4.61141e-010	4.69667e-010	4.76433e-010	4.77034e-010	4.70059e-010	4.79367e-010	
FineR20	4.88727e-010	4.859e-010	4.9822e-010	5.01693e-010	4.96765e-010	4.99385e-010	5.12634e-010	4.87869e-010	5.02077e-010	4.88827e-010	4.85805e-010	5.1067e-010	4.83266e-010	4.93774e-010	4.94511e-010	4.9276e-010	4.76221e-010	4.79135e-010	4.83018e-010	4.87602e-010	4.71976e-010	4.99128e-010	4.80605e-010	4.74366e-010	4.82362e-010	4.66115e-010	
FineR30	4.80182e-010	5.09736e-010	5.02307e-010	5.13923e-010	5.05856e-010	5.06199e-010	5.03493e-010	5.03414e-010	5.08017e-010	5.32255e-010	4.93123e-010	4.92951e-010	5.24874e-010	5.09979e-010	5.02604e-010	5.1235e-010	4.99209e-010	4.97772e-010	4.95435e-010	5.15538e-010	5.14922e-010	5.08192e-010	4.94214e-010	4.76445e-010	4.92473e-010	4.7306e-010	
FineR40	4.63661e-010	5.14393e-010	4.9041e-010	5.09738e-010	5.12633e-010	5.17535e-010	5.13024e-010	5.25541e-010	5.11867e-010	5.07493e-010	5.12934e-010	5.33689e-010	5.25042e-010	4.94564e-010	4.98624e-010	4.87245e-010	5.02195e-010	5.08187e-010	5.27265e-010	5.01325e-010	4.82065e-010	4.96622e-010	4.89138e-010	4.93448e-010	5.08893e-010	5.08648e-010	
FineR50	4.71226e-010	5.09415e-010	5.15884e-010	5.33085e-010	5.07743e-010	5.22636e-010	5.19999e-010	5.23607e-010	5.03141e-010	5.35656e-010	5.24667e-010	5.09056e-010	4.98627e-010	5.29725e-010	5.18929e-010	4.99409e-010	5.0819e-010	5.10196e-010	4.93399e-010	5.09006e-010	5.29233e-010	5.11984e-010	5.0946e-010	5.22984e-010	5.01893e-010	4.94626e-010	
FineR60	4.89275e-010	5.03798e-010	5.19337e-010	5.25413e-010	4.98604e-010	5.31536e-010	5.14096e-010	5.5419e-010	5.35806e-010	5.35418e-010	5.17135e-010	5.31899e-010	5.27937e-010	5.17123e-010	5.0608e-010	5.24069e-010	4.96026e-010	4.91175e-010	5.06994e-010	5.33184e-010	4.93322e-010	5.26252e-010	5.1426e-010	5.09149e-010	5.26267e-010	5.28025e-010	
FineR70	4.86008e-010	5.12105e-010	4.8296e-010	5.04118e-010	5.17325e-010	5.20954e-010	5.21194e-010	5.16749e-010	5.57697e-010	5.2752e-010	5.15845e-010	5.00321e-010	5.3095e-010	5.33485e-010	5.1391e-010	5.26781e-010	4.91045e-010	5.34837e-010	5.09983e-010	5.05061e-010	5.39488e-010	5.29869e-010	4.8219e-010	5.03789e-010	5.21137e-010	5.36306e-010	
FineR80	5.04373e-010	5.20377e-010	5.18607e-010	5.43309e-010	5.33443e-010	5.14787e-010	5.36586e-010	5.28934e-010	5.41235e-010	5.16864e-010	5.24815e-010	5.33363e-010	5.33493e-010	5.31507e-010	5.21492e-010	5.17792e-010	5.25786e-010	5.19672e-010	5.14837e-010	5.18428e-010	5.263e-010	5.2255e-010	5.28816e-010	5.02043e-010	5.12569e-010	5.08819e-010	
FineR90	5.1141e-010	5.52171e-010	5.26145e-010	5.09537e-010	5.34839e-010	5.42747e-010	5.1283e-010	5.09898e-010	5.42482e-010	5.40932e-010	5.18867e-010	5.30422e-010	5.41571e-010	5.32246e-010	5.35662e-010	5.15074e-010	5.34313e-010	5.08013e-010	5.23906e-010	5.1601e-010	5.1e-010	4.83727e-010	5.11857e-010	5.29932e-010	5.1857e-010	5.01949e-010	
FineR100	5.22929e-010	5.18181e-010	5.29288e-010	5.25014e-010	5.34026e-010	5.58189e-010	5.7494e-010	5.40268e-010	5.41918e-010	5.2054e-010	5.21843e-010	5.30133e-010	5.2471e-010	5.07169e-010	5.20662e-010	5.26114e-010	5.20241e-010	5.06819e-010	4.99644e-010	4.90562e-010	5.23869e-010	4.98186e-010	5.17377e-010	5.11866e-010	5.09826e-010	5.24981e-010	
FineR110	4.81537e-010	5.18124e-010	5.08841e-010	5.24135e-010	5.26e-010	5.44424e-010	5.35454e-010	5.46418e-010	5.30858e-010	5.37516e-010	5.06698e-010	5.09996e-010	5.1022e-010	5.12999e-010	5.05144e-010	1.39568e-012	5.15826e-010	5.20217e-010	5.06948e-010	5.21004e-010	5.06477e-010	5.08007e-010	5.21075e-010	5.17009e-010	5.29876e-010	5.12433e-010	
FineR120	4.96718e-010	5.18634e-010	5.20233e-010	5.31547e-010	5.31044e-010	5.49876e-010	5.15713e-010	5.50364e-010	5.12662e-010	5.28557e-010	5.2191e-010	5.41119e-010	5.39691e-010	5.08749e-010	5.36363e-010	5.19513e-010	5.19693e-010	5.36766e-010	5.36676e-010	5.13444e-010	5.09153e-010	5.30351e-010	5.21232e-010	5.0494e-010	5.05362e-010	5.04441e-010	
FineR130	5.03753e-010	5.4671e-010	5.23436e-010	5.20405e-010	5.42122e-010	5.42585e-010	5.35385e-010	5.41002e-010	5.39299e-010	5.30849e-010	4.85849e-010	5.28536e-010	4.99912e-010	5.25012e-010	5.05484e-010	5.4018e-010	5.15158e-010	5.21591e-010	5.15835e-010	5.29763e-010	5.0348e-010	5.141e-010	5.20618e-010	5.0361e-010	5.05617e-010	5.14894e-010	
FineR140	5.15071e-010	5.0308e-010	5.18241e-010	5.36136e-010	5.45953e-010	5.60833e-010	5.54552e-010	5.26518e-010	5.39829e-010	5.41585e-010	5.22289e-010	5.40311e-010	5.06088e-010	5.3232e-010	5.35955e-010	5.32248e-010	5.11109e-010	5.0707e-010	5.33022e-010	5.19915e-010	5.21853e-010	5.50474e-010	5.18312e-010	4.8986e-010	5.10386e-010	5.22138e-010	
FineR150	5.19296e-010	5.20104e-010	5.27285e-010	5.05952e-010	5.29331e-010	5.78153e-010	5.26035e-010	5.60016e-010	5.06021e-010	5.36727e-010	5.14562e-010	5.24398e-010	5.14086e-010	5.31565e-010	5.15197e-010	5.31617e-010	5.09678e-010	5.12661e-010	5.18913e-010	5.36665e-010	5.15139e-010	5.27467e-010	5.34048e-010	5.13595e-010	4.99674e-010	5.16373e-010	
FineR160	5.1317e-010	5.33179e-010	5.12376e-010	5.53988e-010	5.3718e-010	5.54674e-010	5.2872e-010	5.36452e-010	5.29836e-010	5.41827e-010	5.03346e-010	5.25598e-010	5.56428e-010	5.31631e-010	5.07008e-010	5.13855e-010	5.60066e-010	5.26507e-010	5.40187e-010	5.34208e-010	5.3803e-010	5.22089e-010	5.10649e-010	5.31441e-010	5.24175e-010	5.19193e-010	
FineR170	5.1615e-010	5.42569e-010	5.31235e-010	5.15371e-010	5.25614e-010	5.17265e-010	5.19188e-010	5.46822e-010	5.3971e-010	5.09919e-010	5.12963e-010	5.17605e-010	5.20714e-010	5.34551e-010	5.2095e-010	5.26533e-010	5.13664e-010	5.28907e-010	5.23029e-010	5.04391e-010	5.47683e-010	5.00703e-010	5.22539e-010	5.04227e-010	5.2702e-010	5.07577e-010	
FineR180	4.93376e-010	5.01574e-010	5.38813e-010	5.24417e-010	5.48143e-010	5.25286e-010	5.29028e-010	5.17068e-010	5.10943e-010	5.50641e-010	5.06526e-010	5.31818e-010	5.13968e-010	4.97788e-010	5.45059e-010	5.41363e-010	5.48942e-010	5.19139e-010	5.07266e-010	5.11582e-010	5.11026e-010	5.29028e-010	5.11159e-010	5.21669e-010	5.18215e-010	5.20457e-010	
FineR190	5.37234e-010	5.22512e-010	5.32782e-010	5.42803e-010	5.23689e-010	5.28835e-010	5.59734e-010	5.13035e-010	5.25856e-010	5.50915e-010	5.65086e-010	5.5307e-010	5.36383e-010	5.54421e-010	5.38775e-010	5.27021e-010	5.27715e-010	5.15163e-010	5.42566e-010	5.34145e-010	5.34084e-010	5.23088e-010	5.0348e-010	5.20484e-010	4.96966e-010	5.16797e-010	
FineR200	5.1353e-010	4.99757e-010	5.04771e-010	5.26049e-010	5.42197e-010	5.33921e-010	5.52702e-010	5.22877e-010	5.38844e-010	5.22278e-010	5.33883e-010	5.48147e-010	5.22658e-010	5.51802e-010	5.40294e-010	5.44167e-010	1.35413e-012	5.21518e-010	5.32246e-010	5.24165e-010	5.19027e-010	5.30857e-010	5.36532e-010	4.89553e-010	5.02706e-010	5.23936e-010	
FineR210	5.54006e-010	5.39057e-010	5.3331e-010	5.15592e-010	5.5818e-010	5.2946e-010	5.42447e-010	5.3592e-010	5.32132e-010	5.22695e-010	5.33022e-010	5.27194e-010	5.28453e-010	5.39189e-010	5.10323e-010	5.48875e-010	5.18477e-010	5.15806e-010	5.30962e-010	4.94721e-010	5.24716e-010	5.24534e-010	5.1769e-010	5.01724e-010	5.70241e-010	5.48789e-010	
FineR220	4.88939e-010	5.30157e-010	5.323e-010	5.06056e-010	5.36862e-010	5.32449e-010	5.32806e-010	5.25685e-010	5.41521e-010	5.33356e-010	5.26795e-010	5.31622e-010	5.35634e-010	5.2412e-010	5.36808e-010	5.40624e-010	5.27962e-010	5.13648e-010	5.24387e-010	5.19192e-010	5.24433e-010	5.49179e-010	5.16023e-010	5.06487e-010	5.3958e-010	4.91418e-010	
FineR230	5.18178e-010	5.24091e-010	5.23532e-010	5.41842e-010	5.5241e-010	5.286e-010	5.38326e-010	5.39812e-010	5.37602e-010	5.51878e-010	5.5272e-010	5.4105e-010	5.33937e-010	5.2193e-010	5.19722e-010	5.16319e-010	5.36796e-010	5.20561e-010	5.31796e-010	5.32412e-010	5.20654e-010	5.36247e-010	5.22449e-010	5.26763e-010	4.92001e-010	5.10622e-010	
FineR240	5.06453e-010	5.34544e-010	5.28387e-010	5.34016e-010	5.25563e-010	5.22667e-010	5.46261e-010	5.27829e-010	5.11294e-010	5.30757e-010	5.36372e-010	5.27467e-010	5.24146e-010	5.1363e-010	5.44274e-010	5.21491e-010	5.01824e-010	5.2822e-010	5.34635e-010	5.27121e-010	5.17987e-010	5.21741e-010	5.13053e-010	5.04694e-010	5.25139e-010	5.05838e-010	
FineR250	5.13668e-010	4.95611e-010	5.61668e-010	5.24874e-010	5.36765e-010	5.63967e-010	5.16203e-010	5.4952e-010	5.12742e-010	5.33256e-010	5.58724e-010	5.28541e-010	5.46017e-010	5.12951e-010	5.27549e-010	5.20829e-010	5.51195e-010	5.26571e-010	5.25362e-010	5.40901e-010	5.19896e-010	5.26604e-010	5.21371e-010	5.29996e-010	5.40164e-010	5.41575e-010	
MinCout:	1.35413e-012	FineR:	200	FineC:	160

	FineC150	FineC151	FineC152	FineC153	FineC154	FineC155	FineC156	FineC157	FineC158	FineC159	FineC160	FineC161	FineC162	FineC163	FineC164	FineC165	FineC166	FineC167	FineC168	FineC169	FineC170	
FineR190	5.21998e-010	5.46695e-010	5.06331e-010	5.3032e-010	5.34647e-010	5.40029e-010	5.3369e-010	5.29555e-010	5.53617e-010	4.99483e-010	5.45216e-010	5.14847e-010	5.24851e-010	5.36434e-010	5.16902e-010	5.30287e-010	5.32795e-010	5.29672e-010	5.42784e-010	4.98935e-010	5.20265e-010	
FineR191	5.22554e-010	5.37097e-010	5.10994e-010	5.33703e-010	5.50502e-010	5.31136e-010	5.26497e-010	5.28694e-010	5.21982e-010	5.29597e-010	5.13213e-010	5.3181e-010	5.3783e-010	5.14231e-010	5.21483e-010	5.33264e-010	5.26456e-010	5.12435e-010	5.16854e-010	5.04709e-010	5.2615e-010	
FineR192	1.17127e-012	5.17905e-010	5.12195e-010	5.17947e-010	5.15718e-010	5.49317e-010	5.36295e-010	5.12111e-010	5.30238e-010	5.20558e-010	5.30798e-010	5.20276e-010	5.55468e-010	5.14008e-010	5.24323e-010	5.29582e-010	5.24026e-010	5.0347e-010	5.53129e-010	5.31459e-010	5.35056e-010	
FineR193	4.93039e-010	5.26947e-010	5.36757e-010	5.27517e-010	5.32996e-010	5.29243e-010	1.30554e-012	5.26441e-010	5.30826e-010	5.05507e-010	5.2511e-010	5.15731e-010	5.16254e-010	5.27236e-010	5.16171e-010	5.32091e-010	5.34439e-010	5.06935e-010	5.22372e-010	5.02153e-010	5.21849e-010	
FineR194	5.21413e-010	5.2466e-010	5.27119e-010	5.48563e-010	5.37873e-010	5.33953e-010	5.18994e-010	5.277e-010	5.3025e-010	5.39548e-010	5.08218e-010	5.37176e-010	5.24763e-010	5.17978e-010	5.30267e-010	5.32481e-010	5.09466e-010	5.17691e-010	5.09825e-010	5.11745e-010	5.28865e-010	
FineR195	5.2749e-010	5.11276e-010	5.38733e-010	5.36318e-010	5.22059e-010	5.07753e-010	5.1622e-010	5.41736e-010	5.32936e-010	5.24353e-010	5.33955e-010	5.24139e-010	5.27211e-010	5.35715e-010	5.35719e-010	5.26979e-010	1.44093e-012	5.07952e-010	5.23473e-010	5.17e-010	4.99663e-010	
FineR196	5.11136e-010	5.21332e-010	5.29176e-010	5.12896e-010	5.37041e-010	5.30864e-010	5.30553e-010	5.14062e-010	5.17034e-010	5.13978e-010	5.29389e-010	5.37367e-010	5.35624e-010	5.09765e-010	5.22021e-010	5.14444e-010	5.20387e-010	5.02664e-010	5.31781e-010	5.1507e-010	5.53696e-010	
FineR197	5.16375e-010	5.19949e-010	5.33927e-010	5.2255e-010	5.25519e-010	5.27904e-010	5.35846e-010	5.32747e-010	5.37066e-010	5.37528e-010	5.58155e-010	5.12234e-010	5.33531e-010	5.18173e-010	5.17959e-010	5.19307e-010	1.45058e-012	5.15086e-010	5.22654e-010	5.14822e-010	5.26731e-010	
FineR198	5.3544e-010	5.02479e-010	5.15278e-010	5.12722e-010	5.27148e-010	5.1725e-010	5.23218e-010	5.23237e-010	5.52532e-010	5.39091e-010	5.27771e-010	5.30678e-010	5.0068e-010	5.20217e-010	5.20273e-010	5.26847e-010	5.33686e-010	5.00328e-010	5.26081e-010	5.33393e-010	5.36284e-010	
FineR199	4.91303e-010	5.17726e-010	5.2531e-010	5.26554e-010	5.47371e-010	5.36256e-010	5.41539e-010	5.23327e-010	5.24609e-010	5.28056e-010	4.99347e-010	5.11392e-010	5.13749e-010	5.41672e-010	5.09181e-010	5.55883e-010	5.18115e-010	5.30346e-010	5.36544e-010	5.08944e-010	5.28076e-010	
FineR200	5.41139e-010	5.18313e-010	5.25352e-010	5.22321e-010	5.20607e-010	5.33523e-010	5.28748e-010	5.22377e-010	5.3012e-010	5.10679e-010	5.28816e-010	5.40133e-010	5.19427e-010	5.30776e-010	5.19163e-010	5.21983e-010	5.5667e-010	5.43562e-010	5.18348e-010	5.07088e-010	5.23409e-010	
FineR201	5.27108e-010	5.30617e-010	5.20759e-010	5.19543e-010	5.34429e-010	5.15998e-010	5.39872e-010	5.24772e-010	5.58813e-010	5.27565e-010	5.44535e-010	4.94922e-010	5.21347e-010	5.18134e-010	5.10533e-010	5.19936e-010	5.25506e-010	5.30442e-010	5.27422e-010	5.09352e-010	5.34802e-010	
FineR202	5.10013e-010	5.24659e-010	5.52168e-010	5.26264e-010	5.28032e-010	5.39522e-010	5.2313e-010	5.39576e-010	5.17241e-010	5.3346e-010	5.19961e-010	5.11727e-010	5.29353e-010	5.2809e-010	5.43538e-010	5.17535e-010	5.53067e-010	5.24732e-010	5.5267e-010	5.1808e-010	5.21934e-010	
FineR203	5.27145e-010	5.15038e-010	5.27352e-010	5.32463e-010	5.32786e-010	5.45482e-010	5.39507e-010	5.39425e-010	5.3715e-010	5.34898e-010	5.08475e-010	5.30595e-010	5.49013e-010	5.20537e-010	5.31024e-010	5.18969e-010	5.23845e-010	5.12455e-010	5.22843e-010	5.40872e-010	5.2209e-010	
FineR204	5.25524e-010	5.1997e-010	5.2628e-010	5.40289e-010	5.14053e-010	5.15727e-010	5.09388e-010	5.2723e-010	5.2311e-010	5.30141e-010	5.43838e-010	5.23475e-010	5.20135e-010	5.22057e-010	5.32806e-010	5.16424e-010	5.12898e-010	5.20092e-010	5.45022e-010	5.08622e-010	4.99363e-010	
FineR205	5.50445e-010	5.35347e-010	5.13062e-010	5.52697e-010	5.46772e-010	5.22449e-010	5.28865e-010	5.16089e-010	5.30568e-010	5.28419e-010	5.27475e-010	5.29737e-010	5.50247e-010	5.38942e-010	5.02796e-010	5.30274e-010	5.28967e-010	5.33299e-010	5.03258e-010	5.3232e-010	5.19735e-010	
FineR206	5.44447e-010	5.48251e-010	5.06556e-010	5.33656e-010	5.38823e-010	5.08085e-010	5.35505e-010	5.33226e-010	5.44908e-010	5.2609e-010	5.27462e-010	5.40815e-010	5.04989e-010	5.20345e-010	5.43981e-010	5.28976e-010	5.33635e-010	5.20624e-010	5.31469e-010	5.19512e-010	5.15475e-010	
FineR207	5.32939e-010	5.48607e-010	5.39727e-010	5.30362e-010	5.18314e-010	5.22078e-010	5.34646e-010	5.49513e-010	5.38526e-010	5.15388e-010	5.19044e-010	5.2653e-010	5.28576e-010	5.15347e-010	5.58935e-010	5.18741e-010	5.31301e-010	5.18749e-010	5.32671e-010	5.1837e-010	5.20172e-010	
FineR208	5.33843e-010	5.1559e-010	5.13575e-010	5.13106e-010	5.31397e-010	5.23686e-010	5.07851e-010	5.43552e-010	5.30898e-010	5.25304e-010	5.11038e-010	5.25102e-010	5.23084e-010	5.22374e-010	5.08035e-010	5.14407e-010	5.2046e-010	5.45446e-010	5.30437e-010	5.33714e-010	5.39586e-010	
FineR209	5.19344e-010	5.30959e-010	5.37119e-010	5.1883e-010	5.30505e-010	5.38451e-010	5.35456e-010	5.28291e-010	5.33051e-010	5.1089e-010	5.39841e-010	5.49481e-010	5.24744e-010	5.52813e-010	5.37964e-010	5.19053e-010	5.2887e-010	5.00264e-010	5.39869e-010	5.28702e-010	5.06902e-010	
FineR210	5.35959e-010	4.98055e-010	5.27191e-010	5.36228e-010	5.35946e-010	5.21821e-010	5.12704e-010	5.32465e-010	5.44017e-010	5.40775e-010	5.17245e-010	5.35029e-010	5.16004e-010	5.22805e-010	5.31922e-010	5.26202e-010	5.3304e-010	5.50501e-010	5.2057e-010	5.09688e-010	5.17896e-010	
MinCout:	1.17127e-012	FineR:	192	FineC:	150

