	CoarseC0	CoarseC10	CoarseC20	CoarseC30	CoarseC40	CoarseC50	CoarseC60	CoarseC70	CoarseC80	CoarseC90	CoarseC100	CoarseC110	CoarseC120	CoarseC130	CoarseC140	CoarseC150	CoarseC160	CoarseC170	CoarseC180	CoarseC190	CoarseC200	CoarseC210	CoarseC220	CoarseC230	CoarseC240	CoarseC250	
CoarseR0	-6.73937e-011	-7.20757e-011	-8.64121e-011	-1.1106e-010	-7.64644e-011	-8.53834e-011	-1.10898e-010	-8.04058e-011	-8.21111e-011	-1.11324e-010	-8.0711e-011	-1.46982e-010	-1.06585e-010	-7.76416e-011	-8.7763e-011	-1.15665e-010	-7.75715e-011	-1.16539e-010	-1.14219e-010	-7.79414e-011	-8.79487e-011	-1.16058e-010	-8.83027e-011	-7.85519e-011	-1.15846e-010	-7.85996e-011	
CoarseR10	-8.14359e-011	-7.54415e-011	-8.94239e-011	-1.1237e-010	-7.8316e-011	-8.72046e-011	-1.12156e-010	-8.22345e-011	-8.40184e-011	-1.1255e-010	-8.2508e-011	-1.49549e-010	-1.08382e-010	-7.9545e-011	-8.97287e-011	-1.16907e-010	-7.95419e-011	-1.17914e-010	-1.15867e-010	-7.99489e-011	-9.01214e-011	-1.17495e-010	-9.08216e-011	-8.08247e-011	-1.17453e-010	-8.09038e-011	
CoarseR20	-8.43859e-011	-7.7471e-011	-9.20503e-011	-1.14162e-010	-8.08637e-011	-8.97662e-011	-1.13855e-010	-8.46507e-011	-8.66109e-011	-1.14414e-010	-8.50003e-011	-1.53344e-010	-1.1094e-010	-8.22973e-011	-9.24632e-011	-1.18733e-010	-8.23333e-011	-1.19824e-010	-1.18403e-010	-8.29838e-011	-9.31018e-011	-1.19487e-010	-9.43849e-011	-8.42632e-011	-1.19951e-010	-8.41399e-011	
CoarseR30	-8.81821e-011	-8.08416e-011	-9.73229e-011	-1.17483e-010	-8.45196e-011	-9.35361e-011	-1.16291e-010	-8.82541e-011	-9.07112e-011	-1.17259e-010	-8.87918e-011	-1.59136e-010	-1.14752e-010	-8.63508e-011	-9.66898e-011	-1.21473e-010	-8.65919e-011	-1.22795e-010	-1.22227e-010	-8.74326e-011	-9.76757e-011	-1.22507e-010	-9.98015e-011	-8.94261e-011	-1.238e-010	-8.86392e-011	
CoarseR40	-9.33622e-011	-8.54684e-011	-1.02095e-010	-1.22236e-010	-8.93925e-011	-9.76231e-011	-1.19067e-010	-9.18528e-011	-9.44432e-011	-1.20106e-010	-9.1856e-011	-1.63263e-010	-1.17695e-010	-8.89946e-011	-9.91533e-011	-1.23224e-010	-8.86829e-011	-1.24364e-010	-1.24057e-010	-8.89713e-011	-9.91085e-011	-1.23547e-010	-1.00998e-010	-9.03668e-011	-1.24691e-010	-8.93203e-011	
CoarseR50	-9.40466e-011	-8.60306e-011	-1.0286e-010	-1.22844e-010	-9.07326e-011	-9.8707e-011	-1.2016e-010	-9.21196e-011	-9.46632e-011	-1.20426e-010	-9.19956e-011	-1.63251e-010	-1.17895e-010	-8.90462e-011	-9.92551e-011	-1.23372e-010	-8.87775e-011	-1.24546e-010	-1.24196e-010	-8.89832e-011	-9.91422e-011	-1.23631e-010	-1.00959e-010	-9.03048e-011	-1.24754e-010	-8.92809e-011	
CoarseR60	-9.41669e-011	-8.61775e-011	-1.03014e-010	-1.23411e-010	-9.08623e-011	-9.98817e-011	-1.21533e-010	-9.28926e-011	-9.46049e-011	-1.20471e-010	-9.21068e-011	-1.63078e-010	-1.17929e-010	-8.90129e-011	-9.92498e-011	-1.23456e-010	-8.87763e-011	-1.24627e-010	-1.24281e-010	-8.89403e-011	-9.91444e-011	-1.23714e-010	-1.00934e-010	-9.02963e-011	-1.2482e-010	-8.92166e-011	
CoarseR70	-9.42475e-011	-8.62529e-011	-1.03063e-010	-1.23506e-010	-9.11915e-011	-9.98553e-011	-1.21511e-010	-9.40399e-011	-9.51805e-011	-1.20527e-010	-9.20789e-011	-1.62922e-010	-1.18026e-010	-8.90056e-011	-9.92269e-011	-1.23493e-010	-8.86645e-011	-1.24574e-010	-1.24225e-010	-8.8858e-011	-9.9082e-011	-1.23699e-010	-1.00795e-010	-9.01296e-011	-1.24764e-010	-8.91447e-011	
CoarseR80	-9.42653e-011	-8.63383e-011	-1.03061e-010	-1.23514e-010	-9.12436e-011	-9.98438e-011	-1.21633e-010	-9.41169e-011	-9.52069e-011	-1.21316e-010	-9.20623e-011	-1.62793e-010	-1.18011e-010	-8.90068e-011	-9.9278e-011	-1.23506e-010	-8.86517e-011	-1.24636e-010	-1.24251e-010	-8.88373e-011	-9.91058e-011	-1.23729e-010	-1.00711e-010	-9.0083e-011	-1.24734e-010	-8.90908e-011	
CoarseR90	-9.42827e-011	-8.62509e-011	-1.03074e-010	-1.23578e-010	-9.12463e-011	-1.00221e-010	-1.21623e-010	-9.41883e-011	-9.63793e-011	-1.21814e-010	-9.31941e-011	-1.62761e-010	-1.18035e-010	-8.90272e-011	-9.92881e-011	-1.23592e-010	-8.86024e-011	-1.24647e-010	-1.24262e-010	-8.88243e-011	-9.9072e-011	-1.23739e-010	-1.00658e-010	-9.00452e-011	-1.2476e-010	-8.90403e-011	
CoarseR100	-9.42319e-011	-8.62485e-011	-1.03105e-010	-1.23553e-010	-9.12109e-011	-1.003e-010	-1.2178e-010	-9.42306e-011	-9.63336e-011	-1.22675e-010	-9.28961e-011	-1.63401e-010	-1.18083e-010	-8.89736e-011	-9.9312e-011	-1.2362e-010	-8.86373e-011	-1.24678e-010	-1.24275e-010	-8.87843e-011	-9.9061e-011	-1.23771e-010	-1.00671e-010	-9.00326e-011	-1.24773e-010	-8.903e-011	
CoarseR110	-9.42581e-011	-8.63009e-011	-1.03108e-010	-1.23513e-010	-9.12955e-011	-1.00286e-010	-1.21816e-010	-9.42148e-011	-9.64044e-011	-1.22783e-010	-9.28791e-011	-1.63375e-010	-1.18132e-010	-8.90359e-011	-9.93463e-011	-1.23641e-010	-8.8668e-011	-1.24693e-010	-1.24304e-010	-8.87851e-011	-9.90743e-011	-1.23748e-010	-1.00634e-010	-8.99539e-011	-1.24808e-010	-8.90411e-011	
CoarseR120	-9.41776e-011	-8.62799e-011	-1.03107e-010	-1.23551e-010	-9.11814e-011	-1.00186e-010	-1.21809e-010	-9.4169e-011	-9.62548e-011	-1.22534e-010	-9.28279e-011	-1.63218e-010	-1.18205e-010	-8.90039e-011	-9.93431e-011	-1.23675e-010	-8.86463e-011	-1.24746e-010	-1.2436e-010	-8.87416e-011	-9.90451e-011	-1.23782e-010	-1.00575e-010	-8.99833e-011	-1.24821e-010	-8.89873e-011	
CoarseR130	-9.42151e-011	-8.62832e-011	-1.03041e-010	-1.23509e-010	-9.10976e-011	-1.00152e-010	-1.2166e-010	-9.3959e-011	-9.61154e-011	-1.22416e-010	-9.27268e-011	-1.63151e-010	-1.18162e-010	-8.89937e-011	-9.93355e-011	-1.2365e-010	-8.86362e-011	-1.24744e-010	-1.24351e-010	-8.87721e-011	-9.90451e-011	-1.23775e-010	-1.00537e-010	-8.99494e-011	-1.24775e-010	-8.89679e-011	
CoarseR140	-9.419e-011	-8.6189e-011	-1.02948e-010	-1.23414e-010	-9.10621e-011	-9.99666e-011	-1.21416e-010	-9.37778e-011	-9.60915e-011	-1.22394e-010	-9.28196e-011	-1.63227e-010	-1.1819e-010	-8.89836e-011	-9.93323e-011	-1.23666e-010	-8.86336e-011	-1.24736e-010	-1.24347e-010	-8.87209e-011	-9.90297e-011	-1.23756e-010	-1.00481e-010	-8.98627e-011	-1.2481e-010	-8.89064e-011	
CoarseR150	-9.42329e-011	-8.60807e-011	-1.02948e-010	-1.23243e-010	-9.08145e-011	-9.99292e-011	-1.21385e-010	-9.37487e-011	-9.59116e-011	-1.22368e-010	-9.27598e-011	-1.63119e-010	-1.18174e-010	-8.89402e-011	-9.93246e-011	-1.23684e-010	-8.85827e-011	-1.24733e-010	-1.24343e-010	-8.86913e-011	-9.89949e-011	-1.23752e-010	-1.00437e-010	-8.98501e-011	-1.24805e-010	-8.89369e-011	
CoarseR160	-9.4193e-011	-8.60882e-011	-1.02892e-010	-1.2319e-010	-9.07553e-011	-9.99276e-011	-1.21418e-010	-9.37599e-011	-9.59419e-011	-1.22387e-010	-9.27571e-011	-1.63049e-010	-1.18163e-010	-8.89301e-011	-9.92988e-011	-1.2368e-010	-8.85727e-011	-1.24729e-010	-1.243e-010	-8.86401e-011	-9.89479e-011	-1.23709e-010	-1.00381e-010	-8.97955e-011	-1.24748e-010	-8.88552e-011	
CoarseR170	-9.41073e-011	-8.59076e-011	-1.02792e-010	-1.23092e-010	-9.06501e-011	-9.98663e-011	-1.21346e-010	-9.37772e-011	-9.59315e-011	-1.22292e-010	-9.27171e-011	-1.63063e-010	-1.18124e-010	-8.89034e-011	-9.92519e-011	-1.23637e-010	-8.85129e-011	-1.24669e-010	-1.24277e-010	-8.86401e-011	-9.89567e-011	-1.23709e-010	-1.00325e-010	-8.97856e-011	-1.24705e-010	-8.88449e-011	
CoarseR180	-9.39552e-011	-8.57345e-011	-1.02686e-010	-1.23131e-010	-9.07947e-011	-9.98955e-011	-1.21415e-010	-9.38424e-011	-9.58701e-011	-1.21365e-010	-9.27272e-011	-1.63015e-010	-1.18106e-010	-8.88933e-011	-9.92519e-011	-1.23637e-010	-8.84287e-011	-1.24665e-010	-1.24277e-010	-8.85889e-011	-9.88828e-011	-1.23666e-010	-1.00325e-010	-8.96989e-011	-1.24662e-010	-8.87937e-011	
CoarseR190	-9.38775e-011	-8.57314e-011	-1.02754e-010	-1.2319e-010	-9.0729e-011	-9.98597e-011	-1.21534e-010	-9.3761e-011	-9.59734e-011	-1.21382e-010	-9.27272e-011	-1.62472e-010	-1.18139e-010	-8.88601e-011	-9.92519e-011	-1.23579e-010	-8.84287e-011	-1.24665e-010	-1.24239e-010	-8.85889e-011	-9.89143e-011	-1.23669e-010	-1.00325e-010	-8.96776e-011	-1.24702e-010	-8.8804e-011	
CoarseR200	-9.38084e-011	-8.57468e-011	-1.02747e-010	-1.23243e-010	-9.07184e-011	-9.99297e-011	-1.21471e-010	-9.38024e-011	-9.58479e-011	-1.21362e-010	-9.26514e-011	-1.6236e-010	-1.18062e-010	-8.87685e-011	-9.91311e-011	-1.23553e-010	-8.83371e-011	-1.24639e-010	-1.24176e-010	-8.85238e-011	-9.88148e-011	-1.23586e-010	-1.00228e-010	-8.96023e-011	-1.24582e-010	-8.87119e-011	
CoarseR210	-9.38715e-011	-8.57393e-011	-1.02574e-010	-1.23053e-010	-9.07761e-011	-9.98716e-011	-1.21413e-010	-9.37613e-011	-9.58706e-011	-1.21304e-010	-9.25873e-011	-1.62333e-010	-1.18037e-010	-8.87876e-011	-9.91025e-011	-1.2351e-010	-8.83561e-011	-1.24596e-010	-1.24137e-010	-8.84637e-011	-9.8807e-011	-1.23543e-010	-1.00214e-010	-8.96023e-011	-1.246e-010	-8.86685e-011	
CoarseR220	-9.37914e-011	-8.58072e-011	-1.02617e-010	-1.23112e-010	-9.07564e-011	-9.99181e-011	-1.21411e-010	-9.37667e-011	-9.5902e-011	-1.21321e-010	-9.26043e-011	-1.6236e-010	-1.18075e-010	-8.87685e-011	-9.91235e-011	-1.2351e-010	-8.83371e-011	-1.24596e-010	-1.24153e-010	-8.84637e-011	-9.88148e-011	-1.23547e-010	-1.00205e-010	-8.96023e-011	-1.246e-010	-8.86788e-011	
CoarseR230	-9.37281e-011	-8.57361e-011	-1.02624e-010	-1.23135e-010	-9.0809e-011	-9.99776e-011	-1.21485e-010	-9.37473e-011	-9.58286e-011	-1.21321e-010	-9.2623e-011	-1.6236e-010	-1.18e-010	-8.87685e-011	-9.91235e-011	-1.23514e-010	-8.83371e-011	-1.24579e-010	-1.24133e-010	-8.84637e-011	-9.87965e-011	-1.23547e-010	-1.00172e-010	-8.96023e-011	-1.24561e-010	-8.86788e-011	
CoarseR240	-9.38686e-011	-8.577e-011	-1.02712e-010	-1.23038e-010	-9.07801e-011	-9.98186e-011	-1.21413e-010	-9.37613e-011	-9.58613e-011	-1.21286e-010	-9.2623e-011	-1.62319e-010	-1.18038e-010	-8.87685e-011	-9.91235e-011	-1.2351e-010	-8.83038e-011	-1.24559e-010	-1.24171e-010	-8.84637e-011	-9.87965e-011	-1.23543e-010	-1.00187e-010	-8.96443e-011	-1.246e-010	-8.86788e-011	
CoarseR250	-9.37737e-011	-8.57361e-011	-1.02594e-010	-1.23133e-010	-9.07801e-011	-9.98374e-011	-1.21485e-010	-9.37667e-011	-9.58823e-011	-1.21341e-010	-9.26129e-011	-1.62319e-010	-1.1802e-010	-8.87277e-011	-9.90919e-011	-1.23514e-010	-8.83371e-011	-1.24546e-010	-1.24114e-010	-8.84228e-011	-9.87965e-011	-1.23508e-010	-1.00163e-010	-8.96023e-011	-1.24586e-010	-8.86595e-011	
MinCout:	-6.73937e-011	CoarseR:	0	CoarseC:	0

	CoarseC60	CoarseC61	CoarseC62	CoarseC63	CoarseC64	CoarseC65	CoarseC66	CoarseC67	CoarseC68	CoarseC69	CoarseC70	CoarseC71	CoarseC72	CoarseC73	CoarseC74	CoarseC75	CoarseC76	CoarseC77	CoarseC78	CoarseC79	CoarseC80	
CoarseR0	-1.21718e-010	-1.63764e-010	-1.63744e-010	-1.60893e-010	-8.22743e-011	-1.05565e-010	-1.00901e-010	-9.80945e-011	-9.48392e-011	-9.80736e-011	-9.5527e-011	-1.19619e-010	-8.90146e-011	-9.80343e-011	-9.55124e-011	-1.19584e-010	-9.23184e-011	-1.19564e-010	-1.1828e-010	-1.63034e-010	-8.37376e-011	
CoarseR1	-1.22938e-010	-1.64366e-010	-1.63694e-010	-1.63653e-010	-8.22377e-011	-1.05565e-010	-1.00848e-010	-9.81e-011	-9.47988e-011	-9.8108e-011	-9.5527e-011	-1.19617e-010	-8.89738e-011	-9.80687e-011	-9.54947e-011	-1.19584e-010	-9.22783e-011	-1.19545e-010	-1.18285e-010	-1.62991e-010	-8.37376e-011	
CoarseR2	-1.22957e-010	-1.64182e-010	-1.63673e-010	-1.63651e-010	-8.22181e-011	-1.06176e-010	-1.00848e-010	-9.81e-011	-9.47873e-011	-9.80159e-011	-9.55226e-011	-1.19615e-010	-8.90146e-011	-9.7995e-011	-9.54551e-011	-1.19584e-010	-9.22256e-011	-1.19545e-010	-1.1828e-010	-1.62986e-010	-8.36963e-011	
CoarseR3	-1.2292e-010	-1.64243e-010	-1.64305e-010	-1.61591e-010	-8.22181e-011	-1.0617e-010	-1.00848e-010	-9.80816e-011	-9.47873e-011	-9.80896e-011	-9.5527e-011	-1.19576e-010	-8.89953e-011	-9.80159e-011	-9.54873e-011	-1.1958e-010	-9.22614e-011	-1.19541e-010	-1.1828e-010	-1.62986e-010	-8.36781e-011	
CoarseR4	-1.22938e-010	-1.64182e-010	-1.64202e-010	-1.64284e-010	-8.32594e-011	-1.06141e-010	-1.00848e-010	-9.80816e-011	-9.47469e-011	-9.80607e-011	-9.54799e-011	-1.19613e-010	-8.89849e-011	-9.79766e-011	-9.54477e-011	-1.1958e-010	-9.22614e-011	-1.19541e-010	-1.18262e-010	-1.62916e-010	-8.37122e-011	
CoarseR5	-1.2292e-010	-1.64173e-010	-1.64092e-010	-1.64161e-010	-8.3261e-011	-1.06127e-010	-1.01395e-010	-9.80423e-011	-9.47469e-011	-9.80423e-011	-9.55152e-011	-1.19576e-010	-8.89634e-011	-9.7995e-011	-9.55152e-011	-1.1958e-010	-9.22614e-011	-1.19537e-010	-1.18241e-010	-1.62916e-010	-8.36867e-011	
CoarseR6	-1.23231e-010	-1.64112e-010	-1.64173e-010	-1.61373e-010	-8.32477e-011	-1.07102e-010	-1.02486e-010	-9.80423e-011	-9.47469e-011	-9.80423e-011	-9.55152e-011	-1.19615e-010	-8.89634e-011	-9.79869e-011	-9.54477e-011	-1.19576e-010	-9.22544e-011	-1.1958e-010	-1.18275e-010	-1.6289e-010	-8.36685e-011	
CoarseR7	-1.23231e-010	-1.64127e-010	-1.64112e-010	-1.61293e-010	-8.32506e-011	-1.07112e-010	-1.02455e-010	-9.92146e-011	-9.47873e-011	-9.80816e-011	-9.55019e-011	-1.19648e-010	-8.89441e-011	-9.80423e-011	-9.54697e-011	-1.19615e-010	-9.22587e-011	-1.19576e-010	-1.18295e-010	-1.62938e-010	-8.37099e-011	
CoarseR8	-1.23228e-010	-1.64425e-010	-1.64238e-010	-1.64113e-010	-8.32639e-011	-1.07136e-010	-1.02473e-010	-9.98217e-011	-9.47758e-011	-9.80816e-011	-9.54799e-011	-1.19648e-010	-8.8911e-011	-9.80607e-011	-9.54623e-011	-1.19615e-010	-9.22186e-011	-1.19559e-010	-1.18275e-010	-1.62868e-010	-8.37099e-011	
CoarseR9	-1.23207e-010	-1.64439e-010	-1.64404e-010	-1.61167e-010	-8.3239e-011	-1.07059e-010	-1.0245e-010	-9.9856e-011	-9.63093e-011	-9.91411e-011	-9.55474e-011	-1.19574e-010	-8.89939e-011	-9.79869e-011	-9.54579e-011	-1.19535e-010	-9.22117e-011	-1.19535e-010	-1.18275e-010	-1.62868e-010	-8.36772e-011	
CoarseR10	-1.23147e-010	-1.64376e-010	-1.64418e-010	-1.61307e-010	-8.32522e-011	-1.07051e-010	-1.02342e-010	-9.9798e-011	-9.63729e-011	-9.91617e-011	-9.65806e-011	-1.19644e-010	-8.8953e-011	-9.80133e-011	-9.54403e-011	-1.19535e-010	-9.22117e-011	-1.19572e-010	-1.18269e-010	-1.62841e-010	-8.3659e-011	
CoarseR11	-1.23149e-010	-1.64398e-010	-1.64337e-010	-1.61587e-010	-8.31766e-011	-1.07006e-010	-1.02367e-010	-9.98819e-011	-9.63519e-011	-9.98323e-011	-9.67441e-011	-1.20856e-010	-8.89337e-011	-9.79789e-011	-9.54799e-011	-1.1957e-010	-9.22117e-011	-1.19535e-010	-1.18269e-010	-1.62841e-010	-8.36772e-011	
CoarseR12	-1.23131e-010	-1.64288e-010	-1.64328e-010	-1.64274e-010	-8.35761e-011	-1.07021e-010	-1.02337e-010	-9.98323e-011	-9.64462e-011	-9.91701e-011	-9.67014e-011	-1.20837e-010	-8.89426e-011	-9.79789e-011	-9.54725e-011	-1.1957e-010	-9.22117e-011	-1.19568e-010	-1.18269e-010	-1.62841e-010	-8.36772e-011	
CoarseR13	-1.23181e-010	-1.64328e-010	-1.64369e-010	-1.616e-010	-8.35513e-011	-1.06945e-010	-1.02375e-010	-9.9851e-011	-9.63412e-011	-9.97587e-011	-9.6679e-011	-1.20776e-010	-9.00162e-011	-9.79789e-011	-9.55077e-011	-1.1957e-010	-9.22117e-011	-1.19531e-010	-1.18269e-010	-1.62815e-010	-8.36772e-011	
CoarseR14	-1.23293e-010	-1.64349e-010	-1.64288e-010	-1.61512e-010	-8.35314e-011	-1.07353e-010	-1.02407e-010	-9.97451e-011	-9.63711e-011	-9.92221e-011	-9.66843e-011	-1.20909e-010	-9.00374e-011	-9.80446e-011	-9.54373e-011	-1.19609e-010	-9.22448e-011	-1.1957e-010	-1.18308e-010	-1.62815e-010	-8.37186e-011	
CoarseR15	-1.23199e-010	-1.64309e-010	-1.64377e-010	-1.64315e-010	-8.35409e-011	-1.07343e-010	-1.02425e-010	-9.98903e-011	-9.64321e-011	-9.97656e-011	-9.6706e-011	-1.20859e-010	-9.00257e-011	-9.91908e-011	-9.54769e-011	-1.19644e-010	-9.22848e-011	-1.19609e-010	-1.18309e-010	-1.62884e-010	-8.37599e-011	
CoarseR16	-1.23223e-010	-1.64349e-010	-1.64371e-010	-1.61491e-010	-8.35675e-011	-1.07282e-010	-1.02643e-010	-9.98103e-011	-9.63804e-011	-9.9824e-011	-9.73098e-011	-1.20891e-010	-9.00899e-011	-9.90936e-011	-9.66439e-011	-1.19566e-010	-9.22048e-011	-1.19566e-010	-1.18266e-010	-1.62815e-010	-8.36676e-011	
CoarseR17	-1.23181e-010	-1.64363e-010	-1.64261e-010	-1.61491e-010	-8.34338e-011	-1.07299e-010	-1.02736e-010	-1.0019e-010	-9.64012e-011	-9.92169e-011	-9.6729e-011	-1.20815e-010	-8.99665e-011	-9.91932e-011	-9.65669e-011	-1.20793e-010	-9.22048e-011	-1.19566e-010	-1.18303e-010	-1.62788e-010	-8.36495e-011	
CoarseR18	-1.23159e-010	-1.6424e-010	-1.6424e-010	-1.61427e-010	-8.35396e-011	-1.07299e-010	-1.02681e-010	-1.00193e-010	-9.58048e-011	-9.91826e-011	-9.67118e-011	-1.20904e-010	-9.00057e-011	-9.90511e-011	-9.66618e-011	-1.20834e-010	-9.34073e-011	-1.19566e-010	-1.18303e-010	-1.62745e-010	-8.36676e-011	
CoarseR19	-1.23194e-010	-1.64315e-010	-1.64281e-010	-1.61444e-010	-8.34867e-011	-1.07305e-010	-1.0266e-010	-9.95355e-011	-9.60765e-011	-9.92169e-011	-9.66588e-011	-1.20922e-010	-9.00386e-011	-9.90325e-011	-9.65662e-011	-1.20828e-010	-9.34288e-011	-1.20811e-010	-1.1826e-010	-1.62788e-010	-8.36581e-011	
CoarseR20	-1.23117e-010	-1.64357e-010	-1.64254e-010	-1.64322e-010	-8.34867e-011	-1.07262e-010	-1.02111e-010	-1.00182e-010	-9.60644e-011	-9.95387e-011	-9.67222e-011	-1.20957e-010	-9.0019e-011	-9.91167e-011	-9.65444e-011	-1.20828e-010	-9.34417e-011	-1.2083e-010	-1.18297e-010	-1.62761e-010	-8.36581e-011	
MinCout:	-8.22181e-011	CoarseR:	2	CoarseC:	64

	FineC0	FineC10	FineC20	FineC30	FineC40	FineC50	FineC60	FineC70	FineC80	FineC90	FineC100	FineC110	FineC120	FineC130	FineC140	FineC150	FineC160	FineC170	FineC180	FineC190	FineC200	FineC210	FineC220	FineC230	FineC240	FineC250	
FineR0	-1.70784e-010	-1.10331e-010	-1.20308e-010	-8.94486e-011	-1.27526e-010	-1.0261e-010	-9.27479e-011	-9.69798e-011	-1.14367e-010	-1.01903e-010	-1.05573e-010	-1.1127e-010	-9.679e-011	-9.85616e-011	-1.27694e-010	-1.3566e-010	-8.45727e-011	-1.04722e-010	-1.04812e-010	-1.13888e-010	-9.72704e-011	-1.09465e-010	-1.45314e-010	-1.17453e-010	-9.9319e-011	-1.45474e-010	
FineR10	-1.7066e-010	-1.10218e-010	-1.20201e-010	-8.95057e-011	-1.27559e-010	-1.02443e-010	-9.27918e-011	-9.70039e-011	-1.14296e-010	-1.02225e-010	-1.05835e-010	-1.11592e-010	-9.70169e-011	-9.88836e-011	-1.29372e-010	-1.36069e-010	-8.48279e-011	-1.05149e-010	-1.05168e-010	-1.14211e-010	-9.87146e-011	-1.11137e-010	-1.45645e-010	-1.17836e-010	-9.96059e-011	-1.45852e-010	
FineR20	-1.70578e-010	-1.10155e-010	-1.20143e-010	-8.93039e-011	-1.27387e-010	-1.02398e-010	-9.27015e-011	-9.69386e-011	-1.14222e-010	-1.02219e-010	-1.05829e-010	-1.11518e-010	-9.69242e-011	-9.88829e-011	-1.29255e-010	-1.36064e-010	-8.4717e-011	-1.05202e-010	-1.05075e-010	-1.14154e-010	-9.8613e-011	-1.10968e-010	-1.45559e-010	-1.17836e-010	-9.94854e-011	-1.45819e-010	
FineR30	-1.70615e-010	-1.10256e-010	-1.20157e-010	-8.93747e-011	-1.27428e-010	-1.02393e-010	-9.27238e-011	-9.69612e-011	-1.14168e-010	-1.02205e-010	-1.05828e-010	-1.11535e-010	-9.69792e-011	-9.88339e-011	-1.29289e-010	-1.35978e-010	-8.47645e-011	-1.05044e-010	-1.05154e-010	-1.14233e-010	-9.86721e-011	-1.11139e-010	-1.45563e-010	-1.1784e-010	-9.95586e-011	-1.45772e-010	
FineR40	-1.70598e-010	-1.10155e-010	-1.2013e-010	-8.93222e-011	-1.27432e-010	-1.02405e-010	-9.26893e-011	-9.69386e-011	-1.1417e-010	-1.02199e-010	-1.05775e-010	-1.11458e-010	-9.69742e-011	-9.88576e-011	-1.29236e-010	-1.36011e-010	-8.46922e-011	-1.05019e-010	-1.05015e-010	-1.14117e-010	-9.86063e-011	-1.10949e-010	-1.45559e-010	-1.17886e-010	-9.95045e-011	-1.45693e-010	
FineR50	-1.70547e-010	-1.10254e-010	-1.20212e-010	-8.9305e-011	-1.27391e-010	-1.02398e-010	-9.26842e-011	-9.69573e-011	-1.14144e-010	-1.02204e-010	-1.05815e-010	-1.11493e-010	-9.69212e-011	-9.88116e-011	-1.29197e-010	-1.36065e-010	-8.46643e-011	-1.05021e-010	-1.0511e-010	-1.14117e-010	-9.86065e-011	-1.11023e-010	-1.45608e-010	-1.17763e-010	-9.95868e-011	-1.45782e-010	
FineR60	-1.70555e-010	-1.1017e-010	-1.2013e-010	-8.93102e-011	-1.27402e-010	-1.02483e-010	-9.26621e-011	-9.6872e-011	-1.1421e-010	-1.02188e-010	-1.05786e-010	-1.11481e-010	-9.69505e-011	-9.88865e-011	-1.29312e-010	-1.36068e-010	-8.47645e-011	-1.05136e-010	-1.05136e-010	-1.14194e-010	-9.86819e-011	-1.11121e-010	-1.45614e-010	-1.17785e-010	-9.95732e-011	-1.45736e-010	
FineR70	-1.70536e-010	-1.10215e-010	-1.20129e-010	-8.93799e-011	-1.2738e-010	-1.02416e-010	-9.27416e-011	-9.68149e-011	-1.14196e-010	-1.02131e-010	-1.05739e-010	-1.11515e-010	-9.69742e-011	-9.87763e-011	-1.29199e-010	-1.36029e-010	-8.47724e-011	-1.05051e-010	-1.05032e-010	-1.14055e-010	-9.86065e-011	-1.10946e-010	-1.45605e-010	-1.17831e-010	-9.95149e-011	-1.45708e-010	
FineR80	-1.70547e-010	-1.1011e-010	-1.20044e-010	-8.93318e-011	-1.27316e-010	-1.02422e-010	-9.27192e-011	-9.69213e-011	-1.14085e-010	-1.02046e-010	-1.05739e-010	-1.11496e-010	-9.69508e-011	-9.87834e-011	-1.29174e-010	-1.35951e-010	-8.47116e-011	-1.05069e-010	-1.0505e-010	-1.14132e-010	-9.86166e-011	-1.11035e-010	-1.45523e-010	-1.17739e-010	-9.94958e-011	-1.45696e-010	
FineR90	-1.70564e-010	-1.1011e-010	-1.20073e-010	-8.92964e-011	-1.27376e-010	-1.02315e-010	-9.26664e-011	-9.68666e-011	-1.14168e-010	-1.02068e-010	-1.05774e-010	-1.11459e-010	-9.68468e-011	-9.87294e-011	-1.29249e-010	-1.35974e-010	-8.4706e-011	-1.04978e-010	-1.04996e-010	-1.14167e-010	-9.86262e-011	-1.11078e-010	-1.4542e-010	-1.17682e-010	-9.94461e-011	-1.45675e-010	
FineR100	-1.7053e-010	-1.10167e-010	-1.20098e-010	-8.93318e-011	-1.27346e-010	-1.02382e-010	-9.26487e-011	-9.69213e-011	-1.14224e-010	-1.02235e-010	-1.05751e-010	-1.11567e-010	-9.69508e-011	-9.8836e-011	-1.29212e-010	-1.35951e-010	-8.46866e-011	-1.05069e-010	-1.05105e-010	-1.14187e-010	-9.85801e-011	-1.11023e-010	-1.45538e-010	-1.17608e-010	-9.94915e-011	-1.45759e-010	
FineR110	-1.70592e-010	-1.10183e-010	-1.20044e-010	-8.9305e-011	-1.27352e-010	-1.02398e-010	-9.27416e-011	-9.69199e-011	-1.14198e-010	-1.02142e-010	-1.05815e-010	-1.11607e-010	-9.69558e-011	-9.8777e-011	-1.29217e-010	-1.35974e-010	-8.47558e-011	-1.05097e-010	-1.05168e-010	-1.1412e-010	-9.86459e-011	-1.1106e-010	-1.45554e-010	-1.17813e-010	-9.95678e-011	-1.45714e-010	
FineR120	-1.70612e-010	-1.1016e-010	-1.20103e-010	-8.93445e-011	-1.27451e-010	-1.02386e-010	-9.26789e-011	-9.68705e-011	-1.14144e-010	-1.02207e-010	-1.05758e-010	-1.11553e-010	-9.70252e-011	-9.88798e-011	-1.29237e-010	-1.36049e-010	-8.47588e-011	-1.05154e-010	-1.05116e-010	-1.14176e-010	-9.8567e-011	-1.1108e-010	-1.45544e-010	-1.17815e-010	-9.95395e-011	-1.45783e-010	
FineR130	-1.7062e-010	-1.10173e-010	-1.20141e-010	-8.92878e-011	-1.27406e-010	-1.02405e-010	-9.26487e-011	-9.68853e-011	-1.14115e-010	-1.02139e-010	-1.0581e-010	-1.11476e-010	-9.69345e-011	-9.8818e-011	-1.29272e-010	-1.35973e-010	-8.47392e-011	-1.05051e-010	-1.05032e-010	-1.14139e-010	-9.86001e-011	-1.10929e-010	-1.45523e-010	-1.17742e-010	-9.95339e-011	-1.4574e-010	
FineR140	-1.7053e-010	-1.10157e-010	-1.20071e-010	-8.92525e-011	-1.27279e-010	-1.02442e-010	-9.26487e-011	-9.69026e-011	-1.14157e-010	-1.02111e-010	-1.05722e-010	-1.11567e-010	-9.70039e-011	-9.89066e-011	-1.29216e-010	-1.35971e-010	-8.46866e-011	-1.05075e-010	-1.05051e-010	-1.14137e-010	-9.86591e-011	-1.11062e-010	-1.4552e-010	-1.17717e-010	-9.94473e-011	-1.45737e-010	
FineR150	-1.70542e-010	-1.10045e-010	-1.20044e-010	-8.92462e-011	-1.27361e-010	-1.02375e-010	-9.26487e-011	-9.68681e-011	-1.14087e-010	-1.02176e-010	-1.05692e-010	-1.11459e-010	-9.68998e-011	-9.88074e-011	-1.29254e-010	-1.36045e-010	-8.4706e-011	-1.05022e-010	-1.0504e-010	-1.14102e-010	-9.86262e-011	-1.11025e-010	-1.45559e-010	-1.17834e-010	-9.95284e-011	-1.45758e-010	
FineR160	-1.70592e-010	-1.10097e-010	-1.20071e-010	-8.92988e-011	-1.27337e-010	-1.02358e-010	-9.26659e-011	-9.68282e-011	-1.14138e-010	-1.02176e-010	-1.05727e-010	-1.11459e-010	-9.69692e-011	-9.88007e-011	-1.29141e-010	-1.3599e-010	-8.4706e-011	-1.04997e-010	-1.05015e-010	-1.14147e-010	-9.85998e-011	-1.11062e-010	-1.45574e-010	-1.1768e-010	-9.94811e-011	-1.45789e-010	
FineR170	-1.70437e-010	-1.101e-010	-1.20017e-010	-8.93222e-011	-1.27356e-010	-1.02352e-010	-9.26837e-011	-9.69213e-011	-1.1414e-010	-1.02176e-010	-1.05722e-010	-1.1155e-010	-9.69528e-011	-9.87821e-011	-1.29216e-010	-1.3599e-010	-8.46396e-011	-1.05088e-010	-1.05032e-010	-1.1409e-010	-9.86591e-011	-1.10978e-010	-1.45569e-010	-1.17717e-010	-9.94712e-011	-1.45675e-010	
FineR180	-1.70488e-010	-1.10154e-010	-1.20071e-010	-8.92397e-011	-1.27367e-010	-1.02385e-010	-9.26487e-011	-9.69319e-011	-1.14112e-010	-1.02156e-010	-1.05774e-010	-1.11488e-010	-9.69855e-011	-9.88e-011	-1.29249e-010	-1.36009e-010	-8.47392e-011	-1.05124e-010	-1.05069e-010	-1.14073e-010	-9.86591e-011	-1.11043e-010	-1.45587e-010	-1.17755e-010	-9.95578e-011	-1.45719e-010	
FineR190	-1.7048e-010	-1.10042e-010	-1.20071e-010	-8.92792e-011	-1.27395e-010	-1.02405e-010	-9.26715e-011	-9.6872e-011	-1.1417e-010	-1.02148e-010	-1.05791e-010	-1.11553e-010	-9.70252e-011	-9.89535e-011	-1.29238e-010	-1.3603e-010	-8.47726e-011	-1.05091e-010	-1.05037e-010	-1.14139e-010	-9.8646e-011	-1.11136e-010	-1.45508e-010	-1.17746e-010	-9.95057e-011	-1.45769e-010	
FineR200	-1.70697e-010	-1.10196e-010	-1.20016e-010	-8.93222e-011	-1.27376e-010	-1.02368e-010	-9.27187e-011	-9.68494e-011	-1.14166e-010	-1.02176e-010	-1.05774e-010	-1.11437e-010	-9.69081e-011	-9.88403e-011	-1.29232e-010	-1.35987e-010	-8.4731e-011	-1.0505e-010	-1.05034e-010	-1.14132e-010	-9.8702e-011	-1.11055e-010	-1.4559e-010	-1.17776e-010	-9.95634e-011	-1.45657e-010	
FineR210	-1.70604e-010	-1.10097e-010	-1.20082e-010	-8.9261e-011	-1.27367e-010	-1.02445e-010	-9.26136e-011	-9.68959e-011	-1.14141e-010	-1.02051e-010	-1.05755e-010	-1.11525e-010	-9.68918e-011	-9.87654e-011	-1.29213e-010	-1.35971e-010	-8.47116e-011	-1.05105e-010	-1.05105e-010	-1.14204e-010	-9.8613e-011	-1.11094e-010	-1.45538e-010	-1.17794e-010	-9.94239e-011	-1.45747e-010	
FineR220	-1.7046e-010	-1.10125e-010	-1.20112e-010	-8.91977e-011	-1.27402e-010	-1.02398e-010	-9.27061e-011	-9.6872e-011	-1.14224e-010	-1.02145e-010	-1.05768e-010	-1.11555e-010	-9.70272e-011	-9.8787e-011	-1.29232e-010	-1.36008e-010	-8.47586e-011	-1.05108e-010	-1.0511e-010	-1.14169e-010	-9.86757e-011	-1.1102e-010	-1.45538e-010	-1.17813e-010	-9.9607e-011	-1.45747e-010	
FineR230	-1.7055e-010	-1.10128e-010	-1.20046e-010	-8.92868e-011	-1.27372e-010	-1.02469e-010	-9.27238e-011	-9.6872e-011	-1.14172e-010	-1.02198e-010	-1.05738e-010	-1.11535e-010	-9.69212e-011	-9.88229e-011	-1.29217e-010	-1.36029e-010	-8.47147e-011	-1.05116e-010	-1.05091e-010	-1.14122e-010	-9.86657e-011	-1.10986e-010	-1.45538e-010	-1.17833e-010	-9.9559e-011	-1.45711e-010	
FineR240	-1.7057e-010	-1.10155e-010	-1.20102e-010	-8.93222e-011	-1.27432e-010	-1.02386e-010	-9.26616e-011	-9.69267e-011	-1.14144e-010	-1.02241e-010	-1.05805e-010	-1.11498e-010	-9.69395e-011	-9.88858e-011	-1.29294e-010	-1.35994e-010	-8.46728e-011	-1.0511e-010	-1.05078e-010	-1.14156e-010	-9.86657e-011	-1.11062e-010	-1.45559e-010	-1.17802e-010	-9.94958e-011	-1.45738e-010	
FineR250	-1.70527e-010	-1.10128e-010	-1.20102e-010	-8.93273e-011	-1.27428e-010	-1.02453e-010	-9.26611e-011	-9.69439e-011	-1.1417e-010	-1.02173e-010	-1.05781e-010	-1.11538e-010	-9.69272e-011	-9.87979e-011	-1.29294e-010	-1.36013e-010	-8.47394e-011	-1.05155e-010	-1.05118e-010	-1.14216e-010	-9.86425e-011	-1.11062e-010	-1.45492e-010	-1.17802e-010	-9.96408e-011	-1.45702e-010	
MinCout:	-8.45727e-011	FineR:	0	FineC:	160

	FineC20	FineC21	FineC22	FineC23	FineC24	FineC25	FineC26	FineC27	FineC28	FineC29	FineC30	FineC31	FineC32	FineC33	FineC34	FineC35	FineC36	FineC37	FineC38	FineC39	FineC40	
FineR210	-1.20457e-010	-9.41934e-011	-9.41192e-011	-8.77564e-011	-1.20396e-010	-9.41934e-011	-9.41934e-011	-8.78476e-011	-9.21773e-011	-8.95094e-011	-8.95974e-011	-1.15697e-010	-1.51424e-010	-1.27807e-010	-1.27751e-010	-1.02722e-010	-1.27714e-010	-1.02675e-010	-1.02698e-010	-9.15041e-011	-1.27709e-010	
FineR211	-1.20454e-010	-9.4118e-011	-9.41283e-011	-8.776e-011	-1.20378e-010	-9.41717e-011	-9.4118e-011	-8.769e-011	-9.20488e-011	-8.9562e-011	-8.95717e-011	-1.15749e-010	-1.51382e-010	-1.27755e-010	-1.27807e-010	-1.02692e-010	-1.27658e-010	-1.02685e-010	-1.02668e-010	-9.14656e-011	-1.27688e-010	
FineR212	-1.20492e-010	-9.40975e-011	-9.41196e-011	-8.7795e-011	-1.20366e-010	-9.41504e-011	-9.4118e-011	-8.77425e-011	-9.21015e-011	-8.95889e-011	-8.95372e-011	-1.15786e-010	-1.51286e-010	-1.27803e-010	-1.27803e-010	-1.02745e-010	-1.2769e-010	-1.02738e-010	-1.02698e-010	-9.15807e-011	-1.27688e-010	
FineR213	-1.2038e-010	-9.41496e-011	-9.41496e-011	-8.78299e-011	-1.20378e-010	-9.41496e-011	-9.40983e-011	-8.77425e-011	-9.21251e-011	-8.95889e-011	-8.9518e-011	-1.15784e-010	-1.51409e-010	-1.27839e-010	-1.27844e-010	-1.02614e-010	-1.27668e-010	-1.02632e-010	-1.02715e-010	-9.16048e-011	-1.27724e-010	
FineR214	-1.20462e-010	-9.42127e-011	-9.42341e-011	-8.79e-011	-1.2035e-010	-9.41914e-011	-9.41283e-011	-8.7795e-011	-9.21455e-011	-8.95362e-011	-8.96252e-011	-1.1576e-010	-1.51312e-010	-1.27803e-010	-1.27728e-010	-1.02637e-010	-1.27653e-010	-1.02614e-010	-1.02651e-010	-9.14935e-011	-1.27683e-010	
FineR215	-1.20389e-010	-9.41066e-011	-9.42218e-011	-8.77869e-011	-1.20378e-010	-9.41373e-011	-9.41792e-011	-8.77833e-011	-9.21219e-011	-8.9595e-011	-8.96424e-011	-1.15751e-010	-1.51321e-010	-1.27792e-010	-1.27788e-010	-1.02708e-010	-1.27668e-010	-1.02708e-010	-1.02655e-010	-9.16372e-011	-1.27638e-010	
FineR216	-1.20381e-010	-9.42127e-011	-9.41492e-011	-8.77694e-011	-1.20335e-010	-9.41057e-011	-9.41476e-011	-8.78451e-011	-9.20692e-011	-8.95424e-011	-8.94836e-011	-1.15783e-010	-1.51358e-010	-1.27818e-010	-1.27758e-010	-1.02618e-010	-1.27634e-010	-1.02631e-010	-1.02632e-010	-9.15538e-011	-1.27623e-010	
FineR217	-1.20265e-010	-9.41279e-011	-9.40963e-011	-8.76994e-011	-1.20306e-010	-9.41902e-011	-9.40963e-011	-8.77343e-011	-9.20492e-011	-8.95372e-011	-8.94933e-011	-1.15724e-010	-1.51275e-010	-1.27631e-010	-1.27773e-010	-1.02662e-010	-1.2772e-010	-1.02594e-010	-1.02624e-010	-9.15176e-011	-1.27645e-010	
FineR218	-1.20362e-010	-9.41176e-011	-9.41176e-011	-8.78044e-011	-1.20333e-010	-9.41595e-011	-9.40947e-011	-8.77518e-011	-9.20579e-011	-8.94933e-011	-8.94943e-011	-1.15689e-010	-1.51215e-010	-1.2782e-010	-1.27706e-010	-1.02631e-010	-1.27608e-010	-1.02571e-010	-1.02601e-010	-9.15462e-011	-1.27548e-010	
FineR219	-1.20293e-010	-9.41382e-011	-9.41382e-011	-8.77344e-011	-1.20293e-010	-9.40963e-011	-9.40434e-011	-8.77519e-011	-9.20901e-011	-8.95726e-011	-8.95372e-011	-1.15799e-010	-1.51334e-010	-1.27713e-010	-1.27739e-010	-1.02601e-010	-1.27608e-010	-1.02602e-010	-1.02611e-010	-9.14935e-011	-1.27701e-010	
FineR220	-1.20306e-010	-9.41263e-011	-9.4116e-011	-8.78101e-011	-1.20332e-010	-9.40734e-011	-9.41263e-011	-8.77576e-011	-9.20579e-011	-8.94995e-011	-8.95884e-011	-1.15746e-010	-1.51225e-010	-1.27734e-010	-1.27814e-010	-1.02641e-010	-1.27664e-010	-1.02555e-010	-1.02632e-010	-9.14649e-011	-1.27578e-010	
FineR221	-1.20278e-010	-9.41057e-011	-9.40844e-011	-8.77402e-011	-1.20296e-010	-9.4105e-011	-9.41373e-011	-8.78276e-011	-9.20901e-011	-8.95778e-011	-8.95348e-011	-1.15728e-010	-1.5129e-010	-1.27758e-010	-1.27764e-010	-1.02528e-010	-1.2766e-010	-1.02655e-010	-1.02565e-010	-9.14812e-011	-1.27634e-010	
FineR222	-1.20278e-010	-9.41283e-011	-9.40632e-011	-8.77401e-011	-1.20323e-010	-9.41476e-011	-9.41476e-011	-8.78276e-011	-9.20811e-011	-8.95348e-011	-8.95424e-011	-1.15821e-010	-1.51341e-010	-1.27739e-010	-1.27769e-010	-1.02588e-010	-1.27537e-010	-1.02634e-010	-1.02611e-010	-9.15501e-011	-1.27615e-010	
FineR223	-1.20278e-010	-9.40955e-011	-9.41271e-011	-8.77751e-011	-1.20278e-010	-9.40425e-011	-9.4116e-011	-8.77926e-011	-9.20084e-011	-8.95693e-011	-8.9552e-011	-1.15728e-010	-1.51296e-010	-1.27739e-010	-1.27706e-010	-1.02602e-010	-1.27578e-010	-1.02595e-010	-1.02602e-010	-9.1548e-011	-1.27582e-010	
FineR224	-1.2038e-010	-9.40632e-011	-9.41373e-011	-8.78101e-011	-1.20333e-010	-9.41792e-011	-9.4116e-011	-8.77401e-011	-9.20579e-011	-8.95004e-011	-8.95125e-011	-1.15746e-010	-1.51224e-010	-1.27739e-010	-1.27728e-010	-1.02618e-010	-1.27578e-010	-1.02631e-010	-1.02554e-010	-9.15253e-011	-1.27552e-010	
FineR225	-1.20306e-010	-9.40947e-011	-9.40742e-011	-8.76294e-011	-1.20278e-010	-9.40844e-011	-9.40529e-011	-8.77168e-011	-9.20697e-011	-8.95469e-011	-8.94771e-011	-1.15709e-010	-1.5132e-010	-1.27743e-010	-1.27739e-010	-1.02577e-010	-1.27675e-010	-1.02634e-010	-1.02624e-010	-9.14564e-011	-1.27548e-010	
FineR226	-1.20308e-010	-9.40324e-011	-9.40434e-011	-8.77437e-011	-1.20247e-010	-9.40738e-011	-9.40312e-011	-8.77344e-011	-9.2017e-011	-8.94589e-011	-8.95469e-011	-1.15728e-010	-1.51238e-010	-1.27713e-010	-1.27739e-010	-1.02577e-010	-1.27544e-010	-1.02524e-010	-1.02655e-010	-9.15253e-011	-1.27548e-010	
FineR227	-1.20321e-010	-9.40963e-011	-9.4075e-011	-8.76993e-011	-1.20209e-010	-9.40111e-011	-9.40415e-011	-8.77169e-011	-9.20374e-011	-8.95297e-011	-8.95641e-011	-1.15748e-010	-1.51289e-010	-1.27637e-010	-1.27734e-010	-1.02564e-010	-1.27608e-010	-1.02594e-010	-1.02554e-010	-9.14832e-011	-1.27548e-010	
FineR228	-1.20305e-010	-9.40221e-011	-9.40099e-011	-8.77437e-011	-1.20293e-010	-9.40963e-011	-9.40316e-011	-8.76993e-011	-9.20697e-011	-8.94235e-011	-8.94245e-011	-1.15748e-010	-1.51252e-010	-1.27799e-010	-1.27713e-010	-1.02624e-010	-1.27604e-010	-1.0254e-010	-1.02624e-010	-9.1507e-011	-1.27496e-010	
FineR229	-1.20279e-010	-9.39996e-011	-9.40742e-011	-8.77751e-011	-1.20279e-010	-9.40722e-011	-9.40844e-011	-8.76644e-011	-9.20052e-011	-8.95348e-011	-8.95702e-011	-1.15704e-010	-1.5128e-010	-1.27739e-010	-1.27687e-010	-1.02565e-010	-1.27542e-010	-1.02618e-010	-1.02595e-010	-9.14726e-011	-1.27563e-010	
FineR230	-1.20305e-010	-9.40632e-011	-9.4116e-011	-8.77401e-011	-1.20362e-010	-9.40844e-011	-9.40312e-011	-8.76819e-011	-9.20288e-011	-8.94771e-011	-8.94589e-011	-1.15671e-010	-1.51238e-010	-1.27734e-010	-1.27713e-010	-1.02618e-010	-1.27492e-010	-1.02581e-010	-1.02664e-010	-9.14994e-011	-1.27589e-010	
MinCout:	-8.76294e-011	FineR:	225	FineC:	23

