	CoarseC0	CoarseC10	CoarseC20	CoarseC30	CoarseC40	CoarseC50	CoarseC60	CoarseC70	CoarseC80	CoarseC90	CoarseC100	CoarseC110	CoarseC120	CoarseC130	CoarseC140	CoarseC150	CoarseC160	CoarseC170	CoarseC180	CoarseC190	CoarseC200	CoarseC210	CoarseC220	CoarseC230	CoarseC240	CoarseC250	
CoarseR0	-2.97652e-010	-2.82063e-010	-2.7132e-010	-2.63608e-010	-2.57841e-010	-2.53541e-010	-2.50522e-010	-2.48125e-010	-2.4622e-010	-2.44537e-010	-2.44144e-010	-2.43771e-010	-2.43215e-010	-2.43239e-010	-2.4408e-010	-2.45058e-010	-2.45801e-010	-2.46141e-010	-2.46121e-010	-2.45632e-010	-2.44895e-010	-2.43892e-010	-2.42677e-010	-2.41155e-010	-2.39294e-010	-2.37538e-010	
CoarseR10	-2.1752e-010	-2.04959e-010	-1.96341e-010	-1.90013e-010	-1.85442e-010	-1.8264e-010	-1.81159e-010	-1.8022e-010	-1.7975e-010	-1.79739e-010	-1.80595e-010	-1.82759e-010	-1.84879e-010	-1.871e-010	-1.89007e-010	-1.90771e-010	-1.92097e-010	-1.93163e-010	-1.9402e-010	-1.94473e-010	-1.94745e-010	-1.94692e-010	-1.94709e-010	-1.94648e-010	-1.94673e-010	-1.94765e-010	
CoarseR20	4.4592e-010	-1.46191e-010	-1.39334e-010	-1.34911e-010	-1.32062e-010	-1.30293e-010	-1.2955e-010	-1.29515e-010	-1.31017e-010	-1.33541e-010	-1.36216e-010	-1.38917e-010	-1.41521e-010	-1.4424e-010	-1.46756e-010	-1.49146e-010	-1.51249e-010	-1.53187e-010	-1.55091e-010	-1.56933e-010	-1.59129e-010	-1.61555e-010	-1.63514e-010	-1.64947e-010	-1.65779e-010	-1.66385e-010	
CoarseR30	4.82941e-010	-1.00722e-010	-9.55846e-011	-9.2375e-011	-9.01767e-011	-8.93341e-011	-9.01759e-011	-9.2239e-011	-9.48066e-011	-9.75786e-011	-1.00608e-010	-1.03732e-010	-1.0676e-010	-1.10079e-010	-1.13266e-010	-1.16577e-010	-1.19919e-010	-1.23521e-010	-1.27988e-010	-1.32191e-010	-1.35575e-010	-1.3823e-010	-1.4041e-010	-1.42031e-010	-1.43098e-010	-1.44005e-010	
CoarseR40	3.90028e-010	4.06245e-010	-6.212e-011	-5.96256e-011	-5.8669e-011	-5.94466e-011	-6.12691e-011	-6.34603e-011	-6.60139e-011	-6.89563e-011	-7.21731e-011	-7.57216e-011	-7.93395e-011	-8.33663e-011	-8.75293e-011	-9.22152e-011	-9.83084e-011	-1.04206e-010	-1.09261e-010	-1.13444e-010	-1.16961e-010	-1.19768e-010	-1.22045e-010	-1.23834e-010	-1.25267e-010	-1.26356e-010	
CoarseR50	3.72861e-010	3.98885e-010	4.10956e-010	-3.5109e-011	-3.54519e-011	-3.6414e-011	-3.80328e-011	-4.00846e-011	-4.28493e-011	-4.59646e-011	-4.94858e-011	-5.34114e-011	-5.76327e-011	-6.25915e-011	-6.85679e-011	-7.60313e-011	-8.2945e-011	-8.88163e-011	-9.37882e-011	-9.80354e-011	-1.01602e-010	-1.04508e-010	-1.06904e-010	-1.08919e-010	-1.10359e-010	-1.11622e-010	
CoarseR60	3.717e-010	3.65493e-010	4.13914e-010	4.37328e-010	-1.66878e-011	-1.75982e-011	-1.91992e-011	-2.12573e-011	-2.38861e-011	-2.71203e-011	-3.10421e-011	-3.55256e-011	-4.06357e-011	-4.76824e-011	-5.59452e-011	-6.3479e-011	-7.01401e-011	-7.58049e-011	-8.0711e-011	-8.49886e-011	-8.85605e-011	-9.1571e-011	-9.40809e-011	-9.61773e-011	-9.79204e-011	-9.92953e-011	
CoarseR70	3.75162e-010	4.04818e-010	4.31899e-010	4.53107e-010	4.70141e-010	-2.4422e-012	-3.78393e-012	-5.8881e-012	-8.61161e-012	-1.19214e-011	-1.609e-011	-2.12416e-011	-2.81044e-011	-3.7166e-011	-4.53368e-011	-5.27057e-011	-5.92067e-011	-6.47931e-011	-6.95674e-011	-7.38281e-011	-7.74787e-011	-8.04559e-011	-8.31566e-011	-8.53143e-011	-8.71227e-011	-8.86163e-011	
CoarseR80	4.16522e-010	4.23695e-010	4.52606e-010	4.84636e-010	4.919e-010	9.94836e-012	8.64235e-012	6.68144e-012	3.89559e-012	3.63713e-013	-3.97913e-012	-1.03058e-011	-1.89925e-011	-2.8136e-011	-3.61247e-011	-4.3244e-011	-4.96597e-011	-5.51177e-011	-5.99997e-011	-6.42653e-011	-6.78873e-011	-7.09762e-011	-7.3734e-011	-7.59324e-011	-7.77081e-011	-7.93858e-011	
CoarseR90	4.54071e-010	4.79776e-010	4.86894e-010	5.25313e-010	5.44272e-010	5.49661e-010	1.88018e-011	1.68429e-011	1.4058e-011	1.04423e-011	5.48926e-012	-2.05861e-012	-1.11347e-011	-1.99891e-011	-2.79002e-011	-3.48186e-011	-4.11832e-011	-4.66733e-011	-5.1553e-011	-5.58145e-011	-5.93922e-011	-6.26317e-011	-6.53591e-011	-6.77157e-011	-6.95634e-011	-7.13058e-011	
CoarseR100	4.00792e-010	4.34959e-010	4.78621e-010	5.11367e-010	5.05728e-010	5.19776e-010	2.68648e-011	2.50974e-011	2.2415e-011	1.86991e-011	1.33109e-011	4.62399e-012	-4.34989e-012	-1.29327e-011	-2.05941e-011	-2.75204e-011	-3.37495e-011	-3.92155e-011	-4.40596e-011	-4.84495e-011	-5.20803e-011	-5.53811e-011	-5.81618e-011	-6.06385e-011	-6.26074e-011	-6.43572e-011	
CoarseR110	3.9427e-010	4.39371e-010	4.54692e-010	4.65542e-010	4.7686e-010	4.84255e-010	3.3529e-011	3.19689e-011	2.93455e-011	2.55692e-011	1.96063e-011	1.05874e-011	1.91509e-012	-6.49018e-012	-1.40487e-011	-2.09832e-011	-2.72019e-011	-3.26009e-011	-3.7413e-011	-4.18944e-011	-4.56618e-011	-4.8907e-011	-5.1861e-011	-5.43299e-011	-5.64135e-011	-5.83637e-011	
CoarseR120	4.04652e-010	4.54839e-010	4.68127e-010	4.67671e-010	4.69515e-010	5.26089e-010	3.87872e-011	3.74855e-011	3.50915e-011	3.13272e-011	2.50608e-011	1.5994e-011	7.4341e-012	-8.09684e-013	-8.23867e-012	-1.50877e-011	-2.13153e-011	-2.68098e-011	-3.17192e-011	-3.61334e-011	-3.99949e-011	-4.33376e-011	-4.63579e-011	-4.88798e-011	-5.09947e-011	-5.29536e-011	
CoarseR130	3.74025e-010	3.72087e-010	4.27831e-010	4.53889e-010	4.96817e-010	5.48716e-010	4.29921e-011	4.19199e-011	3.97437e-011	3.61604e-011	2.97769e-011	2.07785e-011	1.24158e-011	4.29714e-012	-3.04909e-012	-9.85296e-012	-1.61432e-011	-2.16224e-011	-2.66386e-011	-3.10567e-011	-3.50123e-011	-3.84386e-011	-4.15275e-011	-4.4186e-011	-4.63957e-011	-4.83899e-011	
CoarseR140	3.55057e-010	3.97429e-010	4.21011e-010	4.52035e-010	4.8845e-010	5.22797e-010	4.62171e-011	4.54392e-011	4.34138e-011	4.00336e-011	3.39648e-011	2.51643e-011	1.68748e-011	8.74195e-012	1.43225e-012	-5.40344e-012	-1.15801e-011	-1.71697e-011	-2.22051e-011	-2.67272e-011	-3.07139e-011	-3.42493e-011	-3.73674e-011	-4.01281e-011	-4.24266e-011	-4.45154e-011	
CoarseR150	3.36628e-010	3.957e-010	4.18663e-010	4.85275e-010	4.7229e-010	5.07345e-010	4.86623e-011	4.80109e-011	4.62559e-011	4.31826e-011	3.76188e-011	2.90967e-011	2.08309e-011	1.26289e-011	5.36308e-012	-1.4579e-012	-7.75323e-012	-1.33353e-011	-1.83808e-011	-2.30202e-011	-2.70717e-011	-3.06306e-011	-3.38538e-011	-3.66348e-011	-3.89811e-011	-4.12002e-011	
CoarseR160	3.47961e-010	3.93158e-010	4.39101e-010	4.76276e-010	4.98877e-010	4.58359e-010	5.03657e-011	4.99153e-011	4.84945e-011	4.57688e-011	4.06555e-011	3.24776e-011	2.42122e-011	1.60936e-011	8.71617e-012	1.81456e-012	-4.4995e-012	-1.00772e-011	-1.51988e-011	-1.98015e-011	-2.39115e-011	-2.75951e-011	-3.08964e-011	-3.38028e-011	-3.62111e-011	-3.84253e-011	
CoarseR170	3.40187e-010	4.00533e-010	4.13451e-010	4.43625e-010	4.63757e-010	5.08214e-010	5.14626e-011	5.13148e-011	5.00726e-011	4.76743e-011	4.32221e-011	3.54616e-011	2.72255e-011	1.91109e-011	1.16913e-011	4.78741e-012	-1.60625e-012	-7.36616e-012	-1.25502e-011	-1.72023e-011	-2.13856e-011	-2.51491e-011	-2.84957e-011	-3.14538e-011	-3.3921e-011	-3.61895e-011	
CoarseR180	3.56771e-010	3.82489e-010	3.92597e-010	4.32633e-010	4.72554e-010	4.99539e-010	5.20511e-011	5.21005e-011	5.10802e-011	4.90174e-011	4.51082e-011	3.79501e-011	2.97567e-011	2.15984e-011	1.40664e-011	7.08644e-012	6.99833e-013	-5.10389e-012	-1.03696e-011	-1.51785e-011	-1.93122e-011	-2.3148e-011	-2.65997e-011	-2.96486e-011	-3.21969e-011	-3.45101e-011	
CoarseR190	3.41496e-010	3.67199e-010	4.334e-010	4.61171e-010	4.57796e-010	4.51501e-010	5.22339e-011	5.24454e-011	5.16411e-011	4.98082e-011	4.63702e-011	4.00058e-011	3.17002e-011	2.34519e-011	1.58773e-011	8.90958e-012	2.4236e-012	-3.43511e-012	-8.70925e-012	-1.35846e-011	-1.78785e-011	-2.16632e-011	-2.52442e-011	-2.82244e-011	-3.07994e-011	-3.32368e-011	
CoarseR200	3.7239e-010	4.23985e-010	4.40763e-010	4.44694e-010	4.46266e-010	4.44089e-010	5.21746e-011	5.24535e-011	5.18103e-011	5.02124e-011	4.70912e-011	4.13797e-011	3.33288e-011	2.50783e-011	1.75112e-011	1.03864e-011	3.85646e-012	-2.0786e-012	-7.41102e-012	-1.23838e-011	-1.66642e-011	-2.0595e-011	-2.40337e-011	-2.72302e-011	-2.98163e-011	-3.22957e-011	
CoarseR210	3.71611e-010	3.97046e-010	4.32226e-010	4.4998e-010	4.7348e-010	4.97285e-010	5.16491e-011	5.2118e-011	5.16327e-011	5.02125e-011	4.73226e-011	4.23453e-011	3.46567e-011	2.63682e-011	1.86936e-011	1.14827e-011	4.94343e-012	-1.05861e-012	-6.52276e-012	-1.15256e-011	-1.59658e-011	-1.98221e-011	-2.34631e-011	-2.65839e-011	-2.91927e-011	-3.16953e-011	
CoarseR220	3.90495e-010	3.79954e-010	4.12213e-010	4.37743e-010	4.57526e-010	4.54123e-010	5.1065e-011	5.16184e-011	5.12439e-011	4.99505e-011	4.74039e-011	4.29157e-011	3.5705e-011	2.73077e-011	1.95771e-011	1.23291e-011	5.55389e-012	-4.42573e-013	-5.92654e-012	-1.09587e-011	-1.54532e-011	-1.94185e-011	-2.30022e-011	-2.61777e-011	-2.88933e-011	-3.13768e-011	
CoarseR230	3.49777e-010	3.88578e-010	4.07987e-010	4.16857e-010	4.8679e-010	4.83807e-010	5.02496e-011	5.09336e-011	5.06618e-011	4.9411e-011	4.70784e-011	4.31659e-011	3.62104e-011	2.79284e-011	2.01086e-011	1.2788e-011	6.03275e-012	-7.6813e-014	-5.70634e-012	-1.07649e-011	-1.53101e-011	-1.92601e-011	-2.28672e-011	-2.61083e-011	-2.88014e-011	-3.13586e-011	
CoarseR240	3.67701e-010	3.88443e-010	4.11127e-010	4.41242e-010	4.12633e-010	4.71642e-010	4.94975e-011	5.01107e-011	4.99497e-011	4.88298e-011	4.66322e-011	4.29312e-011	3.65403e-011	2.82306e-011	2.04282e-011	1.30767e-011	6.19819e-012	6.29296e-014	-5.57439e-012	-1.06753e-011	-1.52337e-011	-1.93067e-011	-2.29221e-011	-2.61227e-011	-2.89444e-011	-3.14245e-011	
CoarseR250	3.43347e-010	4.1304e-010	4.12553e-010	4.56996e-010	4.49426e-010	5.26038e-010	4.86172e-011	4.92902e-011	4.91814e-011	4.81245e-011	4.59851e-011	4.26504e-011	3.66183e-011	2.84861e-011	2.05505e-011	1.31349e-011	6.2773e-012	6.25778e-014	-5.62669e-012	-1.08074e-011	-1.53046e-011	-1.94348e-011	-2.31998e-011	-2.63603e-011	-2.91732e-011	-3.17314e-011	
MinCout:	6.25778e-014	CoarseR:	250	CoarseC:	170

	CoarseC40	CoarseC41	CoarseC42	CoarseC43	CoarseC44	CoarseC45	CoarseC46	CoarseC47	CoarseC48	CoarseC49	CoarseC50	CoarseC51	CoarseC52	CoarseC53	CoarseC54	CoarseC55	CoarseC56	CoarseC57	CoarseC58	CoarseC59	CoarseC60	
CoarseR60	-1.63248e-011	-1.63606e-011	-1.6454e-011	-1.65184e-011	-1.65815e-011	-1.65498e-011	-1.6663e-011	-1.67311e-011	-1.68318e-011	-1.68949e-011	-1.70304e-011	-1.72082e-011	-1.73656e-011	-1.74151e-011	-1.75484e-011	-1.77524e-011	-1.7911e-011	-1.80763e-011	-1.82116e-011	-1.84861e-011	-1.85882e-011	
CoarseR61	-1.48015e-011	-1.48764e-011	-1.47966e-011	-1.48662e-011	-1.49004e-011	-1.48401e-011	-1.49932e-011	-1.51157e-011	-1.52109e-011	-1.5272e-011	-1.53805e-011	-1.55708e-011	-1.5613e-011	-1.58725e-011	-1.59591e-011	-1.60936e-011	-1.62027e-011	-1.63822e-011	-1.65314e-011	-1.67837e-011	-1.69583e-011	
CoarseR62	-1.32166e-011	-1.32632e-011	-1.32117e-011	-1.32544e-011	-1.33872e-011	-1.342e-011	-1.33709e-011	-1.34901e-011	-1.36353e-011	-1.36997e-011	-1.37687e-011	-1.38716e-011	-1.40458e-011	-1.41481e-011	-1.43172e-011	-1.44545e-011	-1.4587e-011	-1.47464e-011	-1.48704e-011	-1.51438e-011	-1.53426e-011	
CoarseR63	-1.16909e-011	-1.17433e-011	-1.17594e-011	-1.18655e-011	-1.18234e-011	-1.18374e-011	-1.18433e-011	-1.18998e-011	-1.20064e-011	-1.21107e-011	-1.22687e-011	-1.235e-011	-1.24866e-011	-1.25934e-011	-1.27171e-011	-1.29545e-011	-1.31235e-011	-1.32164e-011	-1.33296e-011	-1.35999e-011	-1.37409e-011	
CoarseR64	-1.01083e-011	-1.02225e-011	-1.02106e-011	-1.02629e-011	-1.03973e-011	-1.02866e-011	-1.02485e-011	-1.03356e-011	-1.04552e-011	-1.05301e-011	-1.06426e-011	-1.08308e-011	-1.0886e-011	-1.09634e-011	-1.11494e-011	-1.13571e-011	-1.15148e-011	-1.16562e-011	-1.17909e-011	-1.19868e-011	-1.21863e-011	
CoarseR65	-8.57455e-012	-8.68016e-012	-8.70654e-012	-8.76331e-012	-8.78473e-012	-8.78038e-012	-8.88623e-012	-8.72958e-012	-8.85265e-012	-8.97453e-012	-9.05905e-012	-9.20803e-012	-9.38772e-012	-9.4372e-012	-9.6198e-012	-9.72883e-012	-9.87369e-012	-1.01056e-011	-1.0227e-011	-1.03876e-011	-1.05274e-011	
CoarseR66	4.60286e-010	-7.11188e-012	-7.13352e-012	-7.24765e-012	-7.2727e-012	-7.37787e-012	-7.48014e-012	-7.34336e-012	-7.41438e-012	-7.45509e-012	-7.57692e-012	-7.71431e-012	-7.85471e-012	-8.01094e-012	-8.07941e-012	-8.20229e-012	-8.37808e-012	-8.58817e-012	-8.71365e-012	-8.91035e-012	-9.05672e-012	
CoarseR67	4.64492e-010	-5.67141e-012	-5.70826e-012	-5.78379e-012	-5.92391e-012	-5.91572e-012	-5.94588e-012	-5.94385e-012	-6.03434e-012	-6.00336e-012	-6.06201e-012	-6.27329e-012	-6.33219e-012	-6.5094e-012	-6.63369e-012	-6.70932e-012	-6.84572e-012	-7.00018e-012	-7.18313e-012	-7.39397e-012	-7.53437e-012	
CoarseR68	4.65436e-010	4.47706e-010	-4.2568e-012	-4.34751e-012	-4.37303e-012	-4.43617e-012	-4.51452e-012	-4.59763e-012	-4.58744e-012	-4.58608e-012	-4.65151e-012	-4.73798e-012	-4.87128e-012	-4.98329e-012	-5.11192e-012	-5.32074e-012	-5.42634e-012	-5.55185e-012	-5.6944e-012	-5.94357e-012	-6.09809e-012	
CoarseR69	4.56275e-010	4.51466e-010	4.55377e-010	-2.88445e-012	-2.95834e-012	-3.05442e-012	-3.12798e-012	-3.21603e-012	-3.31658e-012	-3.31794e-012	-3.36745e-012	-3.39115e-012	-3.51174e-012	-3.56015e-012	-3.72612e-012	-3.8637e-012	-4.00735e-012	-4.16331e-012	-4.28478e-012	-4.50466e-012	-4.64506e-012	
CoarseR70	4.7172e-010	4.56693e-010	4.61393e-010	-1.52896e-012	-1.61625e-012	-1.69924e-012	-1.74362e-012	-1.87956e-012	-1.93257e-012	-1.90513e-012	-2.01152e-012	-2.06345e-012	-2.05169e-012	-2.20019e-012	-2.2948e-012	-2.47675e-012	-2.63444e-012	-2.79468e-012	-2.91079e-012	-3.13371e-012	-3.25304e-012	
CoarseR71	4.41238e-010	4.72552e-010	4.6756e-010	4.77866e-010	-2.59167e-013	-3.03406e-013	-4.38916e-013	-4.3306e-013	-5.94325e-013	-6.67411e-013	-6.40606e-013	-7.91987e-013	-7.83013e-013	-8.06893e-013	-9.39058e-013	-1.0763e-012	-1.2279e-012	-1.41791e-012	-1.48662e-012	-1.7477e-012	-1.87178e-012	
CoarseR72	4.751e-010	5.03168e-010	4.79843e-010	5.08655e-010	5.00016e-010	1.05509e-012	9.66796e-013	8.73313e-013	7.50241e-013	8.02795e-013	6.86372e-013	5.73383e-013	4.8441e-013	4.73838e-013	3.27346e-013	2.21553e-013	6.44436e-014	-1.63864e-013	-2.3638e-013	-4.2477e-013	-6.21047e-013	
CoarseR73	5.05727e-010	5.15834e-010	5.04154e-010	4.77851e-010	5.00542e-010	2.30034e-012	2.24087e-012	2.17622e-012	2.01426e-012	2.02789e-012	2.00337e-012	1.90186e-012	1.72961e-012	1.75154e-012	1.55835e-012	1.48922e-012	1.37261e-012	1.17415e-012	1.0194e-012	8.27166e-013	7.48675e-013	
CoarseR74	4.99481e-010	5.04015e-010	5.05286e-010	4.98631e-010	4.8927e-010	5.11594e-010	3.46863e-012	3.49456e-012	3.36193e-012	3.32942e-012	3.29994e-012	3.1347e-012	3.06975e-012	2.99056e-012	2.88877e-012	2.73897e-012	2.68642e-012	2.50091e-012	2.36786e-012	2.13778e-012	2.08938e-012	
CoarseR75	5.164e-010	4.85512e-010	5.03029e-010	4.97651e-010	5.03859e-010	5.25465e-010	4.74383e-012	4.63669e-012	4.55164e-012	4.45196e-012	4.49675e-012	4.3703e-012	4.27662e-012	4.19201e-012	4.13031e-012	3.96783e-012	3.79078e-012	3.75616e-012	3.63659e-012	3.47087e-012	3.2636e-012	
CoarseR76	4.70722e-010	4.83123e-010	4.8426e-010	4.82017e-010	4.86365e-010	5.0314e-010	4.97145e-010	5.90299e-012	5.77135e-012	5.6856e-012	5.63845e-012	5.64708e-012	5.48742e-012	5.35587e-012	5.27968e-012	5.24431e-012	5.08088e-012	4.90402e-012	4.84864e-012	4.64524e-012	4.5193e-012	
CoarseR77	5.0848e-010	5.01993e-010	4.81653e-010	5.22974e-010	4.99311e-010	5.2047e-010	4.86579e-010	4.96742e-010	6.96151e-012	6.99248e-012	6.89755e-012	6.81555e-012	6.6948e-012	6.55922e-012	6.44546e-012	6.30862e-012	6.35825e-012	6.15023e-012	6.04195e-012	5.84154e-012	5.69486e-012	
CoarseR78	5.18499e-010	4.91287e-010	5.17012e-010	4.76229e-010	4.91754e-010	4.90005e-010	4.80577e-010	4.78511e-010	8.21032e-012	8.0964e-012	7.98795e-012	7.89346e-012	7.8204e-012	7.68087e-012	7.56337e-012	7.46541e-012	7.37171e-012	7.29141e-012	7.16299e-012	6.93277e-012	6.87657e-012	
CoarseR79	4.88877e-010	4.9432e-010	4.85043e-010	5.10266e-010	5.09666e-010	5.09659e-010	4.9469e-010	5.12249e-010	5.09913e-010	9.24954e-012	9.18929e-012	9.0374e-012	8.91755e-012	8.85964e-012	8.77179e-012	8.58437e-012	8.52999e-012	8.34786e-012	8.33692e-012	8.13157e-012	7.98659e-012	
CoarseR80	5.04816e-010	5.26102e-010	4.96387e-010	5.05143e-010	4.99673e-010	4.88621e-010	5.14441e-010	5.12042e-010	5.04834e-010	4.98523e-010	1.03334e-011	1.0143e-011	1.00871e-011	1.00337e-011	9.95127e-012	9.81864e-012	9.66579e-012	9.52489e-012	9.55222e-012	9.37779e-012	9.17766e-012	
MinCout:	6.44436e-014	CoarseR:	72	CoarseC:	56

	FineC0	FineC10	FineC20	FineC30	FineC40	FineC50	FineC60	FineC70	FineC80	FineC90	FineC100	FineC110	FineC120	FineC130	FineC140	FineC150	FineC160	FineC170	FineC180	FineC190	FineC200	FineC210	FineC220	FineC230	FineC240	FineC250	
FineR0	4.5583e-010	4.58698e-010	4.62414e-010	4.69602e-010	4.83275e-010	4.83611e-010	4.64525e-010	4.63184e-010	4.43721e-010	-1.35275e-011	-1.29941e-011	-1.26385e-011	-1.22593e-011	-1.19316e-011	-1.15927e-011	-1.14808e-011	-1.12825e-011	-1.09891e-011	-1.07741e-011	-1.06104e-011	-1.03335e-011	-1.02552e-011	-1.02808e-011	-1.01083e-011	-1.00131e-011	-1.00376e-011	
FineR10	4.68819e-010	4.70342e-010	4.49589e-010	4.56942e-010	4.53781e-010	4.95314e-010	4.59162e-010	4.51046e-010	4.71288e-010	4.62822e-010	4.48551e-010	4.44173e-010	4.7424e-010	4.79636e-010	4.56832e-010	4.67959e-010	4.5625e-010	4.60757e-010	4.81665e-010	4.9419e-010	4.87769e-010	4.36796e-010	4.80721e-010	4.77528e-010	4.8377e-010	4.68297e-010	
FineR20	4.46079e-010	4.54513e-010	4.76762e-010	4.46686e-010	4.49952e-010	4.63331e-010	4.66998e-010	4.6228e-010	4.39297e-010	4.72715e-010	4.65077e-010	4.54435e-010	4.57366e-010	4.53675e-010	4.45778e-010	4.58618e-010	4.49385e-010	4.47242e-010	4.37784e-010	4.41211e-010	4.52152e-010	4.62854e-010	4.36527e-010	4.33153e-010	4.71137e-010	4.46799e-010	
FineR30	4.70766e-010	5.08568e-010	4.63634e-010	4.7625e-010	4.71662e-010	4.84986e-010	4.79577e-010	4.87264e-010	4.64837e-010	4.76101e-010	4.66019e-010	4.57922e-010	4.62484e-010	4.80887e-010	4.41321e-010	4.53673e-010	4.42092e-010	4.63994e-010	4.60848e-010	4.60787e-010	4.32924e-010	4.64149e-010	4.2697e-010	4.41517e-010	4.8231e-010	4.41669e-010	
FineR40	4.67035e-010	4.6538e-010	4.77718e-010	4.96554e-010	4.77149e-010	4.70769e-010	4.64642e-010	4.6702e-010	4.97373e-010	4.64656e-010	4.95739e-010	4.49193e-010	4.64242e-010	4.53656e-010	4.74221e-010	4.68761e-010	4.6283e-010	4.69112e-010	4.61745e-010	4.68188e-010	4.48678e-010	4.73342e-010	4.56558e-010	4.50929e-010	4.45261e-010	4.46346e-010	
FineR50	4.68246e-010	4.7236e-010	4.71435e-010	4.64544e-010	4.75166e-010	4.85513e-010	4.74493e-010	5.04394e-010	4.8239e-010	4.87094e-010	4.89266e-010	4.68548e-010	4.58838e-010	4.83065e-010	4.6248e-010	4.79006e-010	4.78315e-010	4.88923e-010	4.87955e-010	4.80302e-010	4.69017e-010	4.66289e-010	4.71115e-010	4.84871e-010	4.57127e-010	4.70526e-010	
FineR60	4.4786e-010	4.59521e-010	4.6327e-010	4.5555e-010	4.61876e-010	4.68155e-010	4.55214e-010	4.62406e-010	4.62847e-010	4.65262e-010	4.67236e-010	4.67459e-010	4.60975e-010	4.69032e-010	4.64963e-010	4.73845e-010	4.72065e-010	4.7544e-010	4.67106e-010	4.60807e-010	4.60379e-010	4.55456e-010	4.72637e-010	4.67612e-010	4.92581e-010	4.81567e-010	
FineR70	4.5958e-010	4.71646e-010	4.76999e-010	4.59257e-010	4.47214e-010	4.58321e-010	4.49638e-010	4.46901e-010	4.57307e-010	4.95611e-010	4.67795e-010	4.81162e-010	4.49332e-010	5.00594e-010	4.55306e-010	4.9242e-010	4.78169e-010	4.72842e-010	4.61264e-010	4.64433e-010	4.71339e-010	4.52795e-010	4.5664e-010	4.63491e-010	4.48867e-010	4.66158e-010	
FineR80	4.82462e-010	4.88171e-010	4.50067e-010	4.70166e-010	4.61774e-010	4.57466e-010	4.63058e-010	4.81037e-010	4.84881e-010	4.57624e-010	4.45564e-010	4.72925e-010	4.53276e-010	4.52713e-010	4.45399e-010	4.48871e-010	4.52947e-010	4.62543e-010	4.79858e-010	4.4506e-010	4.69915e-010	4.54894e-010	4.61861e-010	4.67999e-010	4.59353e-010	4.71676e-010	
FineR90	4.38896e-010	4.69556e-010	4.50568e-010	4.6035e-010	4.7781e-010	4.79529e-010	4.70821e-010	4.50175e-010	4.76158e-010	4.722e-010	4.67445e-010	4.52099e-010	4.54228e-010	4.64724e-010	4.61565e-010	4.50694e-010	4.72978e-010	4.61761e-010	4.58226e-010	4.7576e-010	4.5134e-010	4.43214e-010	4.74936e-010	4.47836e-010	4.62328e-010	4.51312e-010	
FineR100	4.48839e-010	4.82453e-010	4.51516e-010	4.62668e-010	4.81006e-010	4.50589e-010	4.55932e-010	4.64264e-010	4.65215e-010	4.53074e-010	4.50315e-010	4.51096e-010	4.61624e-010	4.5849e-010	4.55289e-010	4.7667e-010	4.8503e-010	4.4893e-010	4.52628e-010	4.50968e-010	4.81575e-010	4.59426e-010	4.59488e-010	4.59429e-010	4.66477e-010	4.72905e-010	
FineR110	4.50936e-010	4.47889e-010	4.46514e-010	4.61337e-010	4.64516e-010	4.80364e-010	4.65229e-010	4.48296e-010	4.52607e-010	4.62804e-010	4.59518e-010	4.5831e-010	4.68783e-010	4.59895e-010	4.5197e-010	4.76641e-010	4.40312e-010	4.64534e-010	4.64468e-010	4.75217e-010	4.6998e-010	4.63596e-010	4.7171e-010	4.47347e-010	4.5766e-010	4.50542e-010	
FineR120	4.36522e-010	4.62037e-010	4.57245e-010	4.58946e-010	4.59321e-010	4.8471e-010	4.70837e-010	4.39767e-010	4.52405e-010	4.66811e-010	4.90591e-010	4.76113e-010	4.69208e-010	4.36769e-010	4.47114e-010	4.63433e-010	4.43226e-010	4.41598e-010	4.58603e-010	4.51844e-010	4.7477e-010	4.73486e-010	4.51436e-010	4.5046e-010	4.72335e-010	4.71714e-010	
FineR130	4.6274e-010	4.59027e-010	4.46504e-010	4.7661e-010	4.67244e-010	4.63939e-010	4.69759e-010	4.5373e-010	4.64801e-010	4.68476e-010	4.59996e-010	4.51556e-010	4.52201e-010	4.86816e-010	4.47428e-010	4.5468e-010	4.50802e-010	4.65468e-010	4.78446e-010	4.64716e-010	4.46625e-010	4.63523e-010	4.5376e-010	4.46437e-010	4.47717e-010	4.6558e-010	
FineR140	4.58209e-010	4.66324e-010	4.68126e-010	4.82854e-010	4.63885e-010	4.60187e-010	4.63716e-010	4.48376e-010	4.77403e-010	4.77303e-010	4.63969e-010	4.71574e-010	4.62286e-010	4.64489e-010	4.72199e-010	4.63736e-010	4.78591e-010	4.41947e-010	4.50428e-010	4.47694e-010	4.72446e-010	4.77358e-010	4.59183e-010	4.43641e-010	4.51207e-010	4.67146e-010	
FineR150	4.40329e-010	4.61592e-010	4.80343e-010	4.80665e-010	4.65561e-010	4.71208e-010	4.5186e-010	4.73234e-010	4.72078e-010	4.67896e-010	4.65471e-010	4.5808e-010	4.59015e-010	4.73656e-010	4.33981e-010	4.58357e-010	4.50837e-010	4.96518e-010	4.63372e-010	4.60169e-010	4.39041e-010	4.56587e-010	4.52864e-010	4.53317e-010	4.50456e-010	4.65309e-010	
FineR160	4.65858e-010	4.54916e-010	4.73196e-010	4.56632e-010	4.91901e-010	4.65222e-010	4.63156e-010	4.77047e-010	4.55706e-010	4.6497e-010	4.85244e-010	4.6032e-010	4.66021e-010	4.78562e-010	4.59837e-010	4.60601e-010	4.58012e-010	4.75807e-010	4.62661e-010	4.55769e-010	4.61403e-010	4.59226e-010	4.55715e-010	4.55642e-010	4.38973e-010	4.66561e-010	
FineR170	4.67399e-010	4.59e-010	4.55595e-010	4.61598e-010	4.59572e-010	4.56328e-010	4.74309e-010	4.84828e-010	4.56409e-010	4.84853e-010	4.67975e-010	4.65248e-010	4.64352e-010	4.54909e-010	4.53753e-010	4.4921e-010	4.78199e-010	4.79705e-010	4.63671e-010	4.59254e-010	4.50078e-010	4.67657e-010	4.70837e-010	4.6319e-010	4.43473e-010	4.50087e-010	
FineR180	4.6667e-010	4.93011e-010	4.62366e-010	4.71833e-010	4.66055e-010	4.81722e-010	4.78169e-010	4.75482e-010	4.72235e-010	4.67965e-010	4.62797e-010	4.61318e-010	4.70824e-010	4.72525e-010	4.80133e-010	4.77501e-010	4.88757e-010	4.7805e-010	4.72346e-010	4.63645e-010	4.47426e-010	4.52565e-010	4.55055e-010	4.55812e-010	4.55271e-010	4.59041e-010	
FineR190	4.62166e-010	4.76107e-010	4.61671e-010	4.65412e-010	4.73857e-010	4.60168e-010	4.69627e-010	4.65469e-010	4.56577e-010	4.6434e-010	4.61806e-010	4.59227e-010	4.73866e-010	4.65407e-010	4.4254e-010	4.7495e-010	4.67145e-010	4.6555e-010	4.49792e-010	4.40325e-010	4.50143e-010	4.51054e-010	4.55203e-010	4.46405e-010	4.2928e-010	4.62083e-010	
FineR200	4.42148e-010	4.62102e-010	4.83791e-010	4.4743e-010	4.81596e-010	4.72028e-010	4.67415e-010	4.67609e-010	4.5391e-010	4.78679e-010	4.7433e-010	4.91912e-010	4.86394e-010	4.47579e-010	4.71452e-010	4.55955e-010	4.48944e-010	4.52587e-010	4.63186e-010	4.38321e-010	4.77071e-010	4.29203e-010	4.32062e-010	4.49605e-010	4.5449e-010	4.60819e-010	
FineR210	4.37115e-010	4.91012e-010	4.67518e-010	4.6407e-010	4.73078e-010	4.79534e-010	4.71112e-010	4.52627e-010	4.62104e-010	4.76929e-010	4.69404e-010	4.68632e-010	4.93449e-010	4.65828e-010	4.76704e-010	4.71492e-010	4.59362e-010	4.57447e-010	4.53855e-010	4.64313e-010	4.57172e-010	4.69132e-010	4.53824e-010	4.50223e-010	4.59813e-010	4.44952e-010	
FineR220	4.50349e-010	4.58231e-010	4.56053e-010	4.62843e-010	4.51098e-010	4.71211e-010	4.6574e-010	4.62247e-010	4.47342e-010	4.59937e-010	4.77464e-010	4.68837e-010	4.60593e-010	4.72014e-010	4.72047e-010	4.7128e-010	4.78369e-010	4.47573e-010	4.323e-010	4.5514e-010	4.70858e-010	4.75604e-010	4.412e-010	4.77337e-010	4.66357e-010	4.59924e-010	
FineR230	4.47648e-010	4.68073e-010	4.6138e-010	4.63238e-010	4.60534e-010	4.61934e-010	4.78506e-010	4.74522e-010	4.71193e-010	4.50628e-010	4.54146e-010	5.07859e-010	4.72417e-010	4.70008e-010	4.66664e-010	4.77667e-010	4.49439e-010	4.75684e-010	4.5939e-010	4.70565e-010	4.56422e-010	4.34069e-010	4.42523e-010	4.57413e-010	4.59081e-010	4.39738e-010	
FineR240	4.74177e-010	4.63426e-010	4.50431e-010	4.72754e-010	4.7864e-010	4.58834e-010	4.65872e-010	4.82324e-010	4.7226e-010	4.63656e-010	4.6087e-010	4.71051e-010	4.6359e-010	4.79093e-010	4.6875e-010	4.90035e-010	4.41214e-010	4.71588e-010	4.71436e-010	4.46292e-010	4.46492e-010	4.58752e-010	4.57814e-010	4.62866e-010	4.58962e-010	4.52124e-010	
FineR250	4.43189e-010	4.57906e-010	4.56127e-010	4.60678e-010	4.64482e-010	4.67104e-010	4.79079e-010	4.77319e-010	4.94127e-010	4.55632e-010	4.77683e-010	4.54142e-010	4.73359e-010	4.42664e-010	4.72522e-010	4.71115e-010	4.51165e-010	4.82653e-010	4.52999e-010	4.82872e-010	4.77507e-010	4.4122e-010	4.62849e-010	4.58089e-010	4.40481e-010	4.57754e-010	
MinCout:	-1.00131e-011	FineR:	0	FineC:	240

	FineC240	FineC241	FineC242	FineC243	FineC244	FineC245	FineC246	FineC247	FineC248	FineC249	FineC250	FineC251	FineC252	FineC253	FineC254	FineC255	FineC255	FineC255	FineC255	FineC255	FineC255	
FineR0	4.26805e-010	4.22617e-010	4.32923e-010	4.64615e-010	4.51886e-010	4.59393e-010	4.44642e-010	4.19743e-010	4.37925e-010	4.37096e-010	4.35224e-010	4.30453e-010	4.36805e-010	4.34021e-010	4.40662e-010	4.28184e-010	4.50083e-010	4.45405e-010	4.46275e-010	4.25574e-010	4.39458e-010	
FineR1	4.51112e-010	4.43475e-010	4.68104e-010	4.36028e-010	4.63484e-010	4.4493e-010	4.54453e-010	4.3808e-010	4.54125e-010	4.61532e-010	4.49941e-010	4.49406e-010	4.45223e-010	4.25652e-010	4.62382e-010	4.70411e-010	4.62442e-010	4.33655e-010	4.44699e-010	4.53714e-010	4.62266e-010	
FineR2	4.52875e-010	4.68099e-010	4.4738e-010	4.47397e-010	4.47171e-010	4.51141e-010	4.79548e-010	4.68847e-010	4.29288e-010	4.34313e-010	4.38459e-010	4.58479e-010	4.62458e-010	4.6241e-010	4.4878e-010	4.59362e-010	4.63725e-010	4.29799e-010	4.55352e-010	4.4509e-010	4.33016e-010	
FineR3	4.52053e-010	4.67961e-010	4.75594e-010	4.67641e-010	4.68647e-010	4.48306e-010	4.34777e-010	4.49306e-010	4.72783e-010	4.62952e-010	4.48917e-010	4.4449e-010	4.49899e-010	4.53533e-010	4.54782e-010	4.52565e-010	4.66582e-010	4.74213e-010	4.70271e-010	4.23007e-010	4.62317e-010	
FineR4	4.79404e-010	4.81386e-010	4.52936e-010	4.67189e-010	4.60925e-010	4.72074e-010	4.82777e-010	4.75954e-010	4.70324e-010	4.57055e-010	4.59627e-010	4.44748e-010	4.68774e-010	4.56688e-010	4.76894e-010	4.72913e-010	4.68455e-010	4.55891e-010	4.61323e-010	4.70325e-010	4.74835e-010	
FineR5	4.59578e-010	4.64643e-010	4.51912e-010	4.63568e-010	4.7367e-010	4.78955e-010	4.69727e-010	4.57851e-010	4.46189e-010	4.76105e-010	4.68518e-010	4.47038e-010	4.51912e-010	4.5517e-010	4.68778e-010	4.7865e-010	4.53761e-010	4.58374e-010	4.689e-010	4.68912e-010	4.69559e-010	
FineR6	4.4414e-010	4.77342e-010	4.56505e-010	4.61889e-010	4.56838e-010	4.77928e-010	4.56753e-010	4.68318e-010	4.59472e-010	4.80126e-010	4.75255e-010	4.69932e-010	4.53288e-010	4.78428e-010	4.6933e-010	4.48611e-010	4.88137e-010	4.79781e-010	4.80193e-010	4.67444e-010	4.72329e-010	
FineR7	4.66052e-010	4.94749e-010	4.68719e-010	4.49664e-010	4.67164e-010	4.87428e-010	4.75425e-010	4.69438e-010	4.63227e-010	4.60358e-010	4.58203e-010	4.5719e-010	4.76714e-010	4.65154e-010	4.71584e-010	4.83052e-010	4.66865e-010	4.73946e-010	4.63304e-010	4.64975e-010	4.68575e-010	
FineR8	4.87011e-010	4.78762e-010	4.63006e-010	4.73441e-010	4.71145e-010	4.57044e-010	4.53255e-010	4.71956e-010	4.60172e-010	4.95878e-010	5.01095e-010	4.85051e-010	4.63671e-010	4.70918e-010	4.61918e-010	4.56662e-010	4.58741e-010	4.72266e-010	4.85142e-010	4.69776e-010	4.61194e-010	
FineR9	4.70438e-010	4.60761e-010	4.77321e-010	4.69706e-010	4.63382e-010	4.83684e-010	4.44452e-010	4.51027e-010	4.67058e-010	4.51698e-010	4.65744e-010	4.59446e-010	4.48473e-010	4.73047e-010	4.75337e-010	4.81808e-010	4.61765e-010	4.687e-010	4.79608e-010	4.56121e-010	4.74333e-010	
FineR10	4.59602e-010	4.46171e-010	4.80926e-010	4.69292e-010	4.74368e-010	4.92328e-010	4.61237e-010	4.89661e-010	4.93535e-010	4.62672e-010	4.84543e-010	4.63853e-010	4.84622e-010	4.88557e-010	4.5788e-010	4.77214e-010	5.11156e-010	4.8587e-010	4.57175e-010	4.81197e-010	4.64564e-010	
FineR11	4.73188e-010	4.54512e-010	4.70436e-010	4.61751e-010	4.82459e-010	4.94558e-010	4.53272e-010	4.79669e-010	4.89805e-010	4.66785e-010	4.64347e-010	4.77838e-010	4.93637e-010	4.76817e-010	4.68028e-010	4.76902e-010	4.65799e-010	4.60838e-010	4.80908e-010	4.74464e-010	4.74662e-010	
FineR12	4.62687e-010	4.59586e-010	4.85708e-010	4.83876e-010	4.69224e-010	4.54952e-010	4.63565e-010	4.7713e-010	4.77068e-010	4.4547e-010	4.62316e-010	4.8904e-010	4.86554e-010	4.65989e-010	4.70318e-010	4.72366e-010	4.71118e-010	4.74078e-010	4.66206e-010	4.64353e-010	4.79163e-010	
FineR13	4.52218e-010	4.60574e-010	4.70184e-010	4.49024e-010	4.75217e-010	4.44703e-010	4.5359e-010	4.59305e-010	4.77228e-010	4.52771e-010	4.61498e-010	4.53339e-010	4.67573e-010	4.66947e-010	4.62272e-010	4.54051e-010	4.63286e-010	4.54732e-010	4.57994e-010	4.62101e-010	4.66409e-010	
FineR14	4.52976e-010	4.72967e-010	4.53938e-010	4.54194e-010	4.72731e-010	4.78643e-010	4.56614e-010	4.53787e-010	4.57805e-010	4.58431e-010	4.50357e-010	4.68915e-010	4.86749e-010	4.61761e-010	4.33132e-010	4.65781e-010	4.56717e-010	4.63194e-010	4.5294e-010	4.49911e-010	4.64877e-010	
FineR15	4.54396e-010	4.63635e-010	4.44435e-010	4.59015e-010	4.5483e-010	4.77495e-010	4.61428e-010	4.65585e-010	4.57962e-010	4.42272e-010	4.58588e-010	4.50346e-010	4.49045e-010	4.35662e-010	4.53757e-010	4.55941e-010	4.49373e-010	4.62289e-010	4.39365e-010	4.6525e-010	4.47962e-010	
FineR16	4.36667e-010	4.72133e-010	4.62382e-010	4.51359e-010	4.41989e-010	4.63598e-010	4.4446e-010	4.41439e-010	4.40065e-010	4.45742e-010	4.50027e-010	4.44209e-010	4.44209e-010	4.4543e-010	4.63688e-010	4.61274e-010	4.45185e-010	4.69284e-010	4.44901e-010	4.50841e-010	4.48857e-010	
FineR17	4.48304e-010	4.73727e-010	4.44399e-010	4.23214e-010	4.43828e-010	4.55549e-010	4.56382e-010	4.43413e-010	4.48494e-010	4.59426e-010	4.5667e-010	4.65113e-010	4.50341e-010	4.56635e-010	4.31416e-010	4.41393e-010	4.53958e-010	4.57469e-010	4.62471e-010	4.60853e-010	4.81156e-010	
FineR18	4.48814e-010	4.64074e-010	4.35223e-010	4.28003e-010	4.31084e-010	4.25039e-010	4.49287e-010	4.53437e-010	4.57991e-010	4.57166e-010	4.44836e-010	4.70667e-010	4.39559e-010	4.28441e-010	4.63419e-010	4.60636e-010	4.50551e-010	4.25552e-010	4.67951e-010	4.44874e-010	4.33985e-010	
FineR19	4.48807e-010	4.40381e-010	4.41798e-010	4.58992e-010	4.48267e-010	4.44854e-010	4.48867e-010	4.47952e-010	4.52994e-010	4.60717e-010	4.26558e-010	4.41015e-010	4.58201e-010	4.5439e-010	4.36346e-010	4.57205e-010	4.36941e-010	4.52107e-010	4.42504e-010	4.55313e-010	4.29808e-010	
FineR20	4.51539e-010	4.5247e-010	4.3143e-010	4.43239e-010	4.45206e-010	4.49201e-010	4.42087e-010	4.31361e-010	4.3776e-010	4.42706e-010	4.45656e-010	4.39664e-010	4.44233e-010	4.66464e-010	4.36539e-010	4.47793e-010	4.44655e-010	4.21669e-010	4.4375e-010	4.41191e-010	4.45134e-010	
MinCout:	4.19743e-010	FineR:	0	FineC:	247

