	CoarseC0	CoarseC10	CoarseC20	CoarseC30	CoarseC40	CoarseC50	CoarseC60	CoarseC70	CoarseC80	CoarseC90	CoarseC100	CoarseC110	CoarseC120	CoarseC130	CoarseC140	CoarseC150	CoarseC160	CoarseC170	CoarseC180	CoarseC190	CoarseC200	CoarseC210	CoarseC220	CoarseC230	CoarseC240	CoarseC250	
CoarseR0	-2.22872e-010	-2.14186e-010	-2.09941e-010	-2.07815e-010	-2.06943e-010	-2.07405e-010	-2.09508e-010	-2.12244e-010	-2.15188e-010	-2.17991e-010	-2.20803e-010	-2.23438e-010	-2.25798e-010	-2.2794e-010	-2.29639e-010	-2.30826e-010	-2.3126e-010	-2.30195e-010	-2.28761e-010	-2.27186e-010	-2.25523e-010	-2.23808e-010	-2.22027e-010	-2.20345e-010	-2.18608e-010	-2.16911e-010	
CoarseR10	-1.84478e-010	-1.78835e-010	-1.76619e-010	-1.76171e-010	-1.77292e-010	-1.80306e-010	-1.83489e-010	-1.86907e-010	-1.90473e-010	-1.93878e-010	-1.9722e-010	-2.00475e-010	-2.03348e-010	-2.05898e-010	-2.07886e-010	-2.08475e-010	-2.08422e-010	-2.08013e-010	-2.07339e-010	-2.06405e-010	-2.0547e-010	-2.04276e-010	-2.03006e-010	-2.01663e-010	-2.00413e-010	-1.99072e-010	
CoarseR20	-1.53922e-010	-1.49692e-010	-1.49157e-010	-1.51099e-010	-1.54293e-010	-1.57624e-010	-1.61338e-010	-1.6528e-010	-1.69228e-010	-1.73268e-010	-1.77151e-010	-1.81015e-010	-1.84402e-010	-1.87154e-010	-1.88771e-010	-1.89942e-010	-1.90504e-010	-1.90702e-010	-1.90488e-010	-1.90059e-010	-1.89469e-010	-1.8869e-010	-1.8783e-010	-1.86953e-010	-1.85901e-010	-1.84874e-010	
CoarseR30	-1.27923e-010	-1.25832e-010	-1.27978e-010	-1.31015e-010	-1.34554e-010	-1.38493e-010	-1.42427e-010	-1.46773e-010	-1.51248e-010	-1.55697e-010	-1.60128e-010	-1.64349e-010	-1.67999e-010	-1.71014e-010	-1.7334e-010	-1.74885e-010	-1.75945e-010	-1.76538e-010	-1.76787e-010	-1.76699e-010	-1.76434e-010	-1.75927e-010	-1.75457e-010	-1.74743e-010	-1.73986e-010	-1.73187e-010	
CoarseR40	-1.07147e-010	-1.08763e-010	-1.10577e-010	-1.14095e-010	-1.17796e-010	-1.22036e-010	-1.26515e-010	-1.31203e-010	-1.35852e-010	-1.40768e-010	-1.45671e-010	-1.50342e-010	-1.5456e-010	-1.58085e-010	-1.6072e-010	-1.62589e-010	-1.63925e-010	-1.64847e-010	-1.65393e-010	-1.65746e-010	-1.65699e-010	-1.65592e-010	-1.65163e-010	-1.64737e-010	-1.64142e-010	-1.63553e-010	
CoarseR50	-9.13109e-011	-9.39506e-011	-9.71481e-011	-9.96732e-011	-1.03693e-010	-1.07971e-010	-1.12688e-010	-1.1771e-010	-1.22874e-010	-1.28259e-010	-1.33386e-010	-1.38846e-010	-1.43612e-010	-1.4729e-010	-1.5019e-010	-1.52367e-010	-1.53998e-010	-1.55119e-010	-1.55922e-010	-1.56415e-010	-1.5665e-010	-1.56683e-010	-1.56507e-010	-1.56289e-010	-1.5593e-010	-1.55478e-010	
CoarseR60	-7.89122e-011	-8.16987e-011	-8.5025e-011	-8.8697e-011	-9.17414e-011	-9.62559e-011	-1.01177e-010	-1.06294e-010	-1.11846e-010	-1.1754e-010	-1.23466e-010	-1.29731e-010	-1.3436e-010	-1.38285e-010	-1.41392e-010	-1.43697e-010	-1.45611e-010	-1.47023e-010	-1.47998e-010	-1.48699e-010	-1.4909e-010	-1.49286e-010	-1.49304e-010	-1.49213e-010	-1.48969e-010	-1.48662e-010	
CoarseR70	-6.89239e-011	-7.16448e-011	-7.48943e-011	-7.87185e-011	-8.27363e-011	-8.6243e-011	-9.12988e-011	-9.67747e-011	-1.02426e-010	-1.08644e-010	-1.15476e-010	-1.2173e-010	-1.26785e-010	-1.30817e-010	-1.33878e-010	-1.36453e-010	-1.38572e-010	-1.40128e-010	-1.41285e-010	-1.42165e-010	-1.42678e-010	-1.43129e-010	-1.43255e-010	-1.43288e-010	-1.43126e-010	-1.42906e-010	
CoarseR80	-6.08573e-011	-6.35253e-011	-6.66593e-011	-7.04156e-011	-7.45997e-011	-7.79067e-011	-8.29486e-011	-8.8548e-011	-9.43845e-011	-1.01053e-010	-1.08521e-010	-1.1492e-010	-1.20103e-010	-1.24336e-010	-1.27843e-010	-1.30386e-010	-1.32524e-010	-1.34265e-010	-1.35624e-010	-1.36645e-010	-1.37344e-010	-1.3772e-010	-1.38139e-010	-1.38219e-010	-1.38244e-010	-1.38045e-010	
CoarseR90	-5.43704e-011	-5.69078e-011	-5.98931e-011	-6.34699e-011	-6.76393e-011	-7.21708e-011	-7.59886e-011	-8.16522e-011	-8.77659e-011	-9.49702e-011	-1.02625e-010	-1.09043e-010	-1.14348e-010	-1.18745e-010	-1.22361e-010	-1.25317e-010	-1.27444e-010	-1.29339e-010	-1.3083e-010	-1.31957e-010	-1.32753e-010	-1.33391e-010	-1.33831e-010	-1.3401e-010	-1.34096e-010	-1.34083e-010	
CoarseR100	-4.93157e-011	-5.16256e-011	-5.44937e-011	-5.80294e-011	-6.19155e-011	-6.65834e-011	-7.02084e-011	-7.58719e-011	-8.21221e-011	-8.99292e-011	-9.74962e-011	-1.04049e-010	-1.09491e-010	-1.1394e-010	-1.17803e-010	-1.20805e-010	-1.23368e-010	-1.25107e-010	-1.26773e-010	-1.28042e-010	-1.28922e-010	-1.29641e-010	-1.30177e-010	-1.3054e-010	-1.30658e-010	-1.30684e-010	
CoarseR110	-4.55646e-011	-4.76745e-011	-5.04137e-011	-5.36476e-011	-5.75722e-011	-6.20304e-011	-6.5573e-011	-7.10957e-011	-7.74298e-011	-8.54216e-011	-9.31127e-011	-9.98093e-011	-1.05327e-010	-1.10063e-010	-1.13854e-010	-1.17092e-010	-1.1975e-010	-1.2164e-010	-1.23364e-010	-1.24815e-010	-1.25857e-010	-1.26683e-010	-1.27277e-010	-1.27612e-010	-1.27836e-010	-1.27938e-010	
CoarseR120	-4.2916e-011	-4.47854e-011	-4.72659e-011	-5.04483e-011	-5.40424e-011	-5.84132e-011	-6.19078e-011	-6.73546e-011	-7.35048e-011	-8.15932e-011	-8.93963e-011	-9.61534e-011	-1.01864e-010	-1.06686e-010	-1.10717e-010	-1.1401e-010	-1.16807e-010	-1.18855e-010	-1.20667e-010	-1.22102e-010	-1.23305e-010	-1.24197e-010	-1.24928e-010	-1.25362e-010	-1.25687e-010	-1.25803e-010	
CoarseR130	-4.10899e-011	-4.27188e-011	-4.50261e-011	-4.79942e-011	-5.14359e-011	-5.56069e-011	-5.90626e-011	-6.43333e-011	-7.04319e-011	-7.83213e-011	-8.62315e-011	-9.32061e-011	-9.90764e-011	-1.03969e-010	-1.08108e-010	-1.11556e-010	-1.1439e-010	-1.1662e-010	-1.18514e-010	-1.20112e-010	-1.21344e-010	-1.22275e-010	-1.22993e-010	-1.23571e-010	-1.23932e-010	-1.24136e-010	
CoarseR140	-4.01989e-011	-4.1631e-011	-4.3605e-011	-4.62792e-011	-4.95885e-011	-5.35985e-011	-5.6929e-011	-6.20904e-011	-6.79751e-011	-7.56546e-011	-8.36098e-011	-9.0724e-011	-9.67342e-011	-1.0182e-010	-1.06051e-010	-1.09579e-010	-1.12568e-010	-1.1483e-010	-1.16867e-010	-1.18497e-010	-1.19856e-010	-1.20953e-010	-1.21721e-010	-1.22257e-010	-1.22585e-010	-1.22927e-010	
CoarseR150	-3.98066e-011	-4.10414e-011	-4.28268e-011	-4.52813e-011	-4.84841e-011	-5.23089e-011	-5.54935e-011	-6.05566e-011	-6.62624e-011	-7.35666e-011	-8.1637e-011	-8.88083e-011	-9.49358e-011	-1.00088e-010	-1.04449e-010	-1.08128e-010	-1.11227e-010	-1.13631e-010	-1.15696e-010	-1.17438e-010	-1.18835e-010	-1.19846e-010	-1.20752e-010	-1.21422e-010	-1.21767e-010	-1.22116e-010	
CoarseR160	-4.00317e-011	-4.09001e-011	-4.26056e-011	-4.49833e-011	-4.795e-011	-5.16378e-011	-5.47473e-011	-5.95572e-011	-6.50396e-011	-7.18833e-011	-8.00434e-011	-8.73019e-011	-9.35914e-011	-9.88319e-011	-1.03386e-010	-1.07105e-010	-1.10313e-010	-1.1275e-010	-1.14957e-010	-1.16722e-010	-1.1817e-010	-1.19309e-010	-1.2014e-010	-1.20869e-010	-1.2136e-010	-1.21646e-010	
CoarseR170	-4.05435e-011	-4.1359e-011	-4.28156e-011	-4.51031e-011	-4.7908e-011	-5.15193e-011	-5.44127e-011	-5.90804e-011	-6.44583e-011	-7.07505e-011	-7.87791e-011	-8.62446e-011	-9.26017e-011	-9.80447e-011	-1.02634e-010	-1.06483e-010	-1.09558e-010	-1.1225e-010	-1.14448e-010	-1.16336e-010	-1.17834e-010	-1.19032e-010	-1.19972e-010	-1.20666e-010	-1.21171e-010	-1.21487e-010	
CoarseR180	-4.13967e-011	-4.20371e-011	-4.35559e-011	-4.55784e-011	-4.84491e-011	-5.16398e-011	-5.45414e-011	-5.89902e-011	-6.41625e-011	-7.0092e-011	-7.80218e-011	-8.54865e-011	-9.19948e-011	-9.74584e-011	-1.02179e-010	-1.06183e-010	-1.09264e-010	-1.12029e-010	-1.14373e-010	-1.16178e-010	-1.1774e-010	-1.19019e-010	-1.19981e-010	-1.20696e-010	-1.2124e-010	-1.21607e-010	
CoarseR190	-4.25058e-011	-4.30391e-011	-4.44241e-011	-4.64595e-011	-4.89823e-011	-5.2191e-011	-5.49763e-011	-5.93594e-011	-6.42764e-011	-6.999e-011	-7.75685e-011	-8.51183e-011	-9.16898e-011	-9.73417e-011	-1.02074e-010	-1.06089e-010	-1.09297e-010	-1.12114e-010	-1.14431e-010	-1.16375e-010	-1.17981e-010	-1.19204e-010	-1.20171e-010	-1.20973e-010	-1.21498e-010	-1.21892e-010	
CoarseR200	-4.36117e-011	-4.41597e-011	-4.55309e-011	-4.74138e-011	-4.99514e-011	-5.29353e-011	-5.56495e-011	-5.98835e-011	-6.46746e-011	-7.01058e-011	-7.72762e-011	-8.50046e-011	-9.16492e-011	-9.73718e-011	-1.02194e-010	-1.06296e-010	-1.09483e-010	-1.12371e-010	-1.14712e-010	-1.16728e-010	-1.1834e-010	-1.19636e-010	-1.20573e-010	-1.21357e-010	-1.21944e-010	-1.22321e-010	
CoarseR210	-4.49596e-011	-4.53246e-011	-4.66853e-011	-4.84612e-011	-5.10181e-011	-5.38736e-011	-5.65283e-011	-6.06635e-011	-6.53473e-011	-7.04931e-011	-7.72299e-011	-8.5096e-011	-9.17256e-011	-9.76103e-011	-1.0247e-010	-1.06598e-010	-1.09905e-010	-1.12722e-010	-1.15157e-010	-1.17179e-010	-1.18844e-010	-1.20065e-010	-1.21097e-010	-1.2189e-010	-1.2248e-010	-1.22879e-010	
CoarseR220	-4.63367e-011	-4.65355e-011	-4.78191e-011	-4.97055e-011	-5.1919e-011	-5.50483e-011	-5.74635e-011	-6.15347e-011	-6.61216e-011	-7.11696e-011	-7.7528e-011	-8.52745e-011	-9.2098e-011	-9.79153e-011	-1.02866e-010	-1.07015e-010	-1.10378e-010	-1.13293e-010	-1.15696e-010	-1.17705e-010	-1.1934e-010	-1.20721e-010	-1.2172e-010	-1.225e-010	-1.23078e-010	-1.23489e-010	
CoarseR230	-4.7512e-011	-4.78102e-011	-4.89273e-011	-5.08826e-011	-5.32286e-011	-5.61439e-011	-5.84736e-011	-6.24604e-011	-6.69808e-011	-7.19122e-011	-7.78987e-011	-8.56612e-011	-9.24655e-011	-9.83216e-011	-1.03342e-010	-1.07459e-010	-1.10956e-010	-1.1385e-010	-1.16282e-010	-1.18314e-010	-1.19923e-010	-1.21358e-010	-1.22404e-010	-1.23112e-010	-1.23752e-010	-1.24129e-010	
CoarseR240	-4.86984e-011	-4.90464e-011	-5.01022e-011	-5.19285e-011	-5.41901e-011	-5.71571e-011	-5.9444e-011	-6.33689e-011	-6.7873e-011	-7.27315e-011	-7.85387e-011	-8.60707e-011	-9.29724e-011	-9.88366e-011	-1.03903e-010	-1.08143e-010	-1.11523e-010	-1.14465e-010	-1.16925e-010	-1.18946e-010	-1.20607e-010	-1.21978e-010	-1.231e-010	-1.23799e-010	-1.24402e-010	-1.24768e-010	
CoarseR250	-4.98017e-011	-5.01323e-011	-5.1115e-011	-5.29588e-011	-5.52664e-011	-5.81548e-011	-6.03901e-011	-6.43339e-011	-6.8774e-011	-7.3565e-011	-7.91132e-011	-8.65037e-011	-9.34554e-011	-9.9409e-011	-1.04471e-010	-1.08677e-010	-1.12088e-010	-1.15112e-010	-1.17508e-010	-1.19622e-010	-1.21234e-010	-1.22624e-010	-1.23708e-010	-1.24479e-010	-1.24959e-010	-1.25383e-010	
MinCout:	-3.98066e-011	CoarseR:	150	CoarseC:	0

	CoarseC50	CoarseC51	CoarseC52	CoarseC53	CoarseC54	CoarseC55	CoarseC56	CoarseC57	CoarseC58	CoarseC59	CoarseC60	CoarseC61	CoarseC62	CoarseC63	CoarseC64	CoarseC65	CoarseC66	CoarseC67	CoarseC68	CoarseC69	CoarseC70	
CoarseR170	-5.01633e-011	-5.0507e-011	-5.08864e-011	-5.12385e-011	-5.17216e-011	-5.21274e-011	-5.25035e-011	-5.28192e-011	-5.32683e-011	-5.3565e-011	-5.41269e-011	-5.44698e-011	-5.50198e-011	-5.52538e-011	-5.57038e-011	-5.61799e-011	-5.66697e-011	-5.71474e-011	-5.76478e-011	-5.81209e-011	-5.86239e-011	
CoarseR171	-5.02717e-011	-5.06018e-011	-5.08678e-011	-5.12146e-011	-5.16813e-011	-5.21091e-011	-5.25096e-011	-5.28854e-011	-5.32176e-011	-5.37383e-011	-5.39419e-011	-5.46299e-011	-5.47983e-011	-5.54667e-011	-5.56934e-011	-5.61571e-011	-5.66383e-011	-5.71546e-011	-5.75938e-011	-5.80919e-011	-5.86086e-011	
CoarseR172	-5.02856e-011	-5.06157e-011	-5.08872e-011	-5.12259e-011	-5.16872e-011	-5.21289e-011	-5.25376e-011	-5.28535e-011	-5.33083e-011	-5.35996e-011	-5.41615e-011	-5.44012e-011	-5.49665e-011	-5.52068e-011	-5.57005e-011	-5.61717e-011	-5.66528e-011	-5.71305e-011	-5.76083e-011	-5.81064e-011	-5.85844e-011	
CoarseR173	-5.02531e-011	-5.05972e-011	-5.09909e-011	-5.13977e-011	-5.17073e-011	-5.21789e-011	-5.25439e-011	-5.29116e-011	-5.33038e-011	-5.36524e-011	-5.41048e-011	-5.44977e-011	-5.48659e-011	-5.52726e-011	-5.56767e-011	-5.61478e-011	-5.66289e-011	-5.71451e-011	-5.75843e-011	-5.80823e-011	-5.8599e-011	
CoarseR174	-5.02723e-011	-5.06467e-011	-5.09448e-011	-5.13794e-011	-5.18492e-011	-5.21413e-011	-5.25639e-011	-5.28879e-011	-5.33103e-011	-5.37027e-011	-5.40811e-011	-5.45123e-011	-5.48344e-011	-5.52351e-011	-5.57212e-011	-5.61625e-011	-5.66436e-011	-5.71212e-011	-5.76063e-011	-5.81042e-011	-5.85315e-011	
CoarseR175	-5.02787e-011	-5.0623e-011	-5.10468e-011	-5.13858e-011	-5.1861e-011	-5.21671e-011	-5.25378e-011	-5.29137e-011	-5.32867e-011	-5.36408e-011	-5.40878e-011	-5.4464e-011	-5.48927e-011	-5.52175e-011	-5.5947e-011	-5.61822e-011	-5.66335e-011	-5.70973e-011	-5.75751e-011	-5.80368e-011	-5.85462e-011	
CoarseR176	-5.02666e-011	-5.06347e-011	-5.10286e-011	-5.14254e-011	-5.18729e-011	-5.23151e-011	-5.26859e-011	-5.28902e-011	-5.32988e-011	-5.37049e-011	-5.41216e-011	-5.45223e-011	-5.48308e-011	-5.52237e-011	-5.57235e-011	-5.6202e-011	-5.66321e-011	-5.71121e-011	-5.75513e-011	-5.80628e-011	-5.85656e-011	
CoarseR177	-5.03223e-011	-5.05849e-011	-5.10404e-011	-5.14373e-011	-5.18987e-011	-5.22453e-011	-5.26979e-011	-5.30303e-011	-5.34091e-011	-5.38018e-011	-5.40138e-011	-5.46441e-011	-5.48124e-011	-5.54938e-011	-5.57434e-011	-5.61709e-011	-5.66656e-011	-5.71244e-011	-5.75847e-011	-5.8039e-011	-5.85346e-011	
CoarseR178	-5.0348e-011	-5.0687e-011	-5.1043e-011	-5.14492e-011	-5.1919e-011	-5.23093e-011	-5.27099e-011	-5.3048e-011	-5.34212e-011	-5.37838e-011	-5.40339e-011	-5.46641e-011	-5.4789e-011	-5.54999e-011	-5.57123e-011	-5.61907e-011	-5.6642e-011	-5.71082e-011	-5.75906e-011	-5.80587e-011	-5.85613e-011	
CoarseR179	-5.04123e-011	-5.07566e-011	-5.11226e-011	-5.15373e-011	-5.19393e-011	-5.23214e-011	-5.27301e-011	-5.30683e-011	-5.34795e-011	-5.38014e-011	-5.42972e-011	-5.4425e-011	-5.50885e-011	-5.52899e-011	-5.57323e-011	-5.62107e-011	-5.66481e-011	-5.71206e-011	-5.76056e-011	-5.80212e-011	-5.85808e-011	
CoarseR180	-5.03864e-011	-5.07631e-011	-5.11192e-011	-5.14935e-011	-5.1995e-011	-5.24233e-011	-5.25985e-011	-5.31944e-011	-5.33775e-011	-5.40122e-011	-5.4189e-011	-5.47103e-011	-5.48354e-011	-5.55537e-011	-5.57523e-011	-5.62306e-011	-5.66605e-011	-5.71404e-011	-5.75868e-011	-5.80842e-011	-5.86004e-011	
CoarseR181	-5.04508e-011	-5.08274e-011	-5.1161e-011	-5.15815e-011	-5.18262e-011	-5.24353e-011	-5.26543e-011	-5.32203e-011	-5.34414e-011	-5.40898e-011	-5.42151e-011	-5.48207e-011	-5.4899e-011	-5.53684e-011	-5.58158e-011	-5.62506e-011	-5.66805e-011	-5.71217e-011	-5.76499e-011	-5.81039e-011	-5.86201e-011	
CoarseR182	-5.05152e-011	-5.08454e-011	-5.12392e-011	-5.16218e-011	-5.1882e-011	-5.23099e-011	-5.29219e-011	-5.30507e-011	-5.37093e-011	-5.38735e-011	-5.44835e-011	-5.46795e-011	-5.516e-011	-5.53563e-011	-5.58359e-011	-5.6268e-011	-5.67437e-011	-5.71849e-011	-5.76559e-011	-5.81236e-011	-5.86443e-011	
CoarseR183	-5.05708e-011	-5.09237e-011	-5.12948e-011	-5.16775e-011	-5.21172e-011	-5.23278e-011	-5.2934e-011	-5.31065e-011	-5.3765e-011	-5.39234e-011	-5.4261e-011	-5.4711e-011	-5.51038e-011	-5.54199e-011	-5.60833e-011	-5.62881e-011	-5.67253e-011	-5.72049e-011	-5.76731e-011	-5.81481e-011	-5.86999e-011	
CoarseR184	-5.06327e-011	-5.09855e-011	-5.13214e-011	-5.17417e-011	-5.21351e-011	-5.25491e-011	-5.30036e-011	-5.31325e-011	-5.35573e-011	-5.41914e-011	-5.42926e-011	-5.49221e-011	-5.51213e-011	-5.56671e-011	-5.59307e-011	-5.63515e-011	-5.68025e-011	-5.72296e-011	-5.77362e-011	-5.82111e-011	-5.8681e-011	
CoarseR185	-5.06647e-011	-5.10411e-011	-5.13911e-011	-5.17596e-011	-5.21614e-011	-5.25809e-011	-5.30815e-011	-5.32078e-011	-5.38167e-011	-5.39808e-011	-5.43999e-011	-5.47923e-011	-5.5204e-011	-5.56653e-011	-5.59803e-011	-5.63827e-011	-5.68198e-011	-5.72469e-011	-5.77176e-011	-5.82282e-011	-5.87053e-011	
CoarseR186	-5.07728e-011	-5.10819e-011	-5.14527e-011	-5.18729e-011	-5.22607e-011	-5.26507e-011	-5.29016e-011	-5.34614e-011	-5.36445e-011	-5.42782e-011	-5.44176e-011	-5.4856e-011	-5.54507e-011	-5.56905e-011	-5.61265e-011	-5.64461e-011	-5.68831e-011	-5.73101e-011	-5.77854e-011	-5.82526e-011	-5.87682e-011	
CoarseR187	-5.07908e-011	-5.11812e-011	-5.1523e-011	-5.18993e-011	-5.2287e-011	-5.27063e-011	-5.30709e-011	-5.3333e-011	-5.38982e-011	-5.41139e-011	-5.44814e-011	-5.48816e-011	-5.52853e-011	-5.59451e-011	-5.61822e-011	-5.66294e-011	-5.69081e-011	-5.73349e-011	-5.78411e-011	-5.83157e-011	-5.87926e-011	
CoarseR188	-5.08988e-011	-5.12515e-011	-5.15496e-011	-5.19608e-011	-5.23709e-011	-5.27761e-011	-5.31405e-011	-5.34404e-011	-5.37696e-011	-5.42596e-011	-5.45424e-011	-5.5147e-011	-5.53843e-011	-5.58226e-011	-5.62645e-011	-5.66468e-011	-5.7136e-011	-5.74338e-011	-5.78796e-011	-5.83833e-011	-5.88169e-011	
CoarseR189	-5.09512e-011	-5.13132e-011	-5.16252e-011	-5.20449e-011	-5.24265e-011	-5.28079e-011	-5.31723e-011	-5.34582e-011	-5.38529e-011	-5.43667e-011	-5.46115e-011	-5.52079e-011	-5.54098e-011	-5.58401e-011	-5.62897e-011	-5.67672e-011	-5.71226e-011	-5.76308e-011	-5.79719e-011	-5.84078e-011	-5.88413e-011	
CoarseR190	-5.10451e-011	-5.13976e-011	-5.17244e-011	-5.21064e-011	-5.24502e-011	-5.28777e-011	-5.32419e-011	-5.36412e-011	-5.39001e-011	-5.44896e-011	-5.46805e-011	-5.50723e-011	-5.56691e-011	-5.59468e-011	-5.63363e-011	-5.67923e-011	-5.72213e-011	-5.76911e-011	-5.80397e-011	-5.84754e-011	-5.88875e-011	
MinCout:	-5.01633e-011	CoarseR:	170	CoarseC:	50

	FineC0	FineC10	FineC20	FineC30	FineC40	FineC50	FineC60	FineC70	FineC80	FineC90	FineC100	FineC110	FineC120	FineC130	FineC140	FineC150	FineC160	FineC170	FineC180	FineC190	FineC200	FineC210	FineC220	FineC230	FineC240	FineC250	
FineR0	-5.72404e-011	-5.66313e-011	-5.62596e-011	-5.58277e-011	-5.55797e-011	-5.53851e-011	-5.50771e-011	-5.48304e-011	-5.46041e-011	-5.43099e-011	-5.41689e-011	-5.39905e-011	-5.38235e-011	-5.36299e-011	-5.33183e-011	-5.32767e-011	-5.30701e-011	-5.29156e-011	-5.28244e-011	-5.27109e-011	-5.23977e-011	-5.22728e-011	-5.23021e-011	-5.22101e-011	-5.2028e-011	-5.19304e-011	
FineR10	-5.77442e-011	-5.71225e-011	-5.66705e-011	-5.62363e-011	-5.59191e-011	-5.56875e-011	-5.5432e-011	-5.52091e-011	-5.49014e-011	-5.4689e-011	-5.44608e-011	-5.42437e-011	-5.40687e-011	-5.39323e-011	-5.37881e-011	-5.36166e-011	-5.3462e-011	-5.33017e-011	-5.31147e-011	-5.29876e-011	-5.28605e-011	-5.27357e-011	-5.25974e-011	-5.25053e-011	-5.23616e-011	-5.22715e-011	
FineR20	-5.81016e-011	-5.75041e-011	-5.70535e-011	-5.66049e-011	-5.62604e-011	-5.57917e-011	-5.57596e-011	-5.54855e-011	-5.5195e-011	-5.49828e-011	-5.47034e-011	-5.45085e-011	-5.43335e-011	-5.41972e-011	-5.40368e-011	-5.39176e-011	-5.37112e-011	-5.3603e-011	-5.33779e-011	-5.32509e-011	-5.30879e-011	-5.2942e-011	-5.28557e-011	-5.27253e-011	-5.26334e-011	-5.24918e-011	
FineR30	-5.83363e-011	-5.77057e-011	-5.72448e-011	-5.68391e-011	-5.6452e-011	-5.62296e-011	-5.59516e-011	-5.56398e-011	-5.53494e-011	-5.51374e-011	-5.49477e-011	-5.46876e-011	-5.45268e-011	-5.43767e-011	-5.42244e-011	-5.40729e-011	-5.38667e-011	-5.3699e-011	-5.3572e-011	-5.34068e-011	-5.32688e-011	-5.31442e-011	-5.30062e-011	-5.29201e-011	-5.27843e-011	-5.26485e-011	
FineR40	-5.85226e-011	-5.78622e-011	-5.73858e-011	-5.69253e-011	-5.65941e-011	-5.63292e-011	-5.61091e-011	-5.57976e-011	-5.55075e-011	-5.53037e-011	-5.50246e-011	-5.47645e-011	-5.46038e-011	-5.44539e-011	-5.43075e-011	-5.41885e-011	-5.40261e-011	-5.38662e-011	-5.36934e-011	-5.35228e-011	-5.33465e-011	-5.32221e-011	-5.3136e-011	-5.3023e-011	-5.29007e-011	-5.28089e-011	
FineR50	-5.86076e-011	-5.793e-011	-5.75055e-011	-5.70208e-011	-5.66768e-011	-5.64924e-011	-5.61917e-011	-5.58803e-011	-5.55759e-011	-5.53731e-011	-5.51074e-011	-5.49431e-011	-5.47111e-011	-5.45751e-011	-5.44289e-011	-5.4228e-011	-5.40657e-011	-5.39058e-011	-5.37713e-011	-5.36063e-011	-5.34684e-011	-5.33057e-011	-5.32062e-011	-5.30629e-011	-5.29711e-011	-5.28872e-011	
FineR60	-5.86982e-011	-5.80194e-011	-5.75519e-011	-5.71095e-011	-5.67655e-011	-5.65005e-011	-5.62227e-011	-5.59113e-011	-5.57026e-011	-5.54096e-011	-5.51741e-011	-5.49665e-011	-5.48e-011	-5.46206e-011	-5.44684e-011	-5.43034e-011	-5.41411e-011	-5.40256e-011	-5.3847e-011	-5.37204e-011	-5.35578e-011	-5.34199e-011	-5.32442e-011	-5.31524e-011	-5.30092e-011	-5.29634e-011	
FineR70	-5.87699e-011	-5.81023e-011	-5.76312e-011	-5.71555e-011	-5.68113e-011	-5.65374e-011	-5.62597e-011	-5.60379e-011	-5.57398e-011	-5.5455e-011	-5.52195e-011	-5.50119e-011	-5.48375e-011	-5.46522e-011	-5.4506e-011	-5.43488e-011	-5.42249e-011	-5.40575e-011	-5.38925e-011	-5.37582e-011	-5.35821e-011	-5.34579e-011	-5.32763e-011	-5.31846e-011	-5.30987e-011	-5.29574e-011	
FineR80	-5.88012e-011	-5.81031e-011	-5.76679e-011	-5.72443e-011	-5.68481e-011	-5.66112e-011	-5.63483e-011	-5.60371e-011	-5.57852e-011	-5.55356e-011	-5.53003e-011	-5.50493e-011	-5.48447e-011	-5.47088e-011	-5.45436e-011	-5.43865e-011	-5.42243e-011	-5.40569e-011	-5.3892e-011	-5.37655e-011	-5.36336e-011	-5.34958e-011	-5.33355e-011	-5.32361e-011	-5.3114e-011	-5.30089e-011	
FineR90	-5.88436e-011	-5.81823e-011	-5.77046e-011	-5.7281e-011	-5.6885e-011	-5.66482e-011	-5.63768e-011	-5.60886e-011	-5.58224e-011	-5.55437e-011	-5.53376e-011	-5.50486e-011	-5.48822e-011	-5.47272e-011	-5.45812e-011	-5.44241e-011	-5.42757e-011	-5.41083e-011	-5.3974e-011	-5.38169e-011	-5.36332e-011	-5.3509e-011	-5.33658e-011	-5.32741e-011	-5.31386e-011	-5.3047e-011	
FineR100	-5.88456e-011	-5.81765e-011	-5.77569e-011	-5.72868e-011	-5.69129e-011	-5.66911e-011	-5.64284e-011	-5.61257e-011	-5.58276e-011	-5.55729e-011	-5.53376e-011	-5.51382e-011	-5.49117e-011	-5.47707e-011	-5.46188e-011	-5.44618e-011	-5.43134e-011	-5.41461e-011	-5.39735e-011	-5.38471e-011	-5.3671e-011	-5.35852e-011	-5.34038e-011	-5.32873e-011	-5.31442e-011	-5.30985e-011	
FineR110	-5.88992e-011	-5.8219e-011	-5.7757e-011	-5.73235e-011	-5.69647e-011	-5.67428e-011	-5.64369e-011	-5.61627e-011	-5.58648e-011	-5.56101e-011	-5.5389e-011	-5.51434e-011	-5.49631e-011	-5.47839e-011	-5.46241e-011	-5.44618e-011	-5.42997e-011	-5.41461e-011	-5.40249e-011	-5.38412e-011	-5.3671e-011	-5.35334e-011	-5.34169e-011	-5.32738e-011	-5.31822e-011	-5.30985e-011	
FineR120	-5.88992e-011	-5.82292e-011	-5.77841e-011	-5.73235e-011	-5.70076e-011	-5.67428e-011	-5.64654e-011	-5.61393e-011	-5.58648e-011	-5.56235e-011	-5.53882e-011	-5.51808e-011	-5.49631e-011	-5.48353e-011	-5.46617e-011	-5.44749e-011	-5.43433e-011	-5.41975e-011	-5.40249e-011	-5.38849e-011	-5.37225e-011	-5.35848e-011	-5.34607e-011	-5.33176e-011	-5.31822e-011	-5.31365e-011	
FineR130	-5.89528e-011	-5.83083e-011	-5.77937e-011	-5.73603e-011	-5.69642e-011	-5.67797e-011	-5.64654e-011	-5.61619e-011	-5.5902e-011	-5.56474e-011	-5.53882e-011	-5.51668e-011	-5.50006e-011	-5.48214e-011	-5.46755e-011	-5.45185e-011	-5.43511e-011	-5.42275e-011	-5.40244e-011	-5.38543e-011	-5.37527e-011	-5.36286e-011	-5.34472e-011	-5.33173e-011	-5.32126e-011	-5.3167e-011	
FineR140	-5.89784e-011	-5.83083e-011	-5.77937e-011	-5.73603e-011	-5.70444e-011	-5.68227e-011	-5.64646e-011	-5.61764e-011	-5.59452e-011	-5.56526e-011	-5.54255e-011	-5.52182e-011	-5.50441e-011	-5.48649e-011	-5.4713e-011	-5.45483e-011	-5.43427e-011	-5.42275e-011	-5.41064e-011	-5.39227e-011	-5.37527e-011	-5.36286e-011	-5.34987e-011	-5.33173e-011	-5.32641e-011	-5.31287e-011	
FineR150	-5.89784e-011	-5.83083e-011	-5.78207e-011	-5.7403e-011	-5.70588e-011	-5.67851e-011	-5.64646e-011	-5.62051e-011	-5.59452e-011	-5.56526e-011	-5.54255e-011	-5.518e-011	-5.50059e-011	-5.48267e-011	-5.4713e-011	-5.45483e-011	-5.43864e-011	-5.42269e-011	-5.40545e-011	-5.39282e-011	-5.37658e-011	-5.36282e-011	-5.34987e-011	-5.33995e-011	-5.32641e-011	-5.31287e-011	
FineR160	-5.89896e-011	-5.83186e-011	-5.78363e-011	-5.73752e-011	-5.7001e-011	-5.67851e-011	-5.65077e-011	-5.62051e-011	-5.59504e-011	-5.5704e-011	-5.54689e-011	-5.52616e-011	-5.50493e-011	-5.48564e-011	-5.47184e-011	-5.45561e-011	-5.43941e-011	-5.42269e-011	-5.40982e-011	-5.39282e-011	-5.37658e-011	-5.36665e-011	-5.34987e-011	-5.33688e-011	-5.32697e-011	-5.31802e-011	
FineR170	-5.89803e-011	-5.8361e-011	-5.7873e-011	-5.7455e-011	-5.70438e-011	-5.6822e-011	-5.65077e-011	-5.62566e-011	-5.59884e-011	-5.5704e-011	-5.54689e-011	-5.52235e-011	-5.50572e-011	-5.48564e-011	-5.47184e-011	-5.45615e-011	-5.43481e-011	-5.42406e-011	-5.41059e-011	-5.39358e-011	-5.38096e-011	-5.36282e-011	-5.3529e-011	-5.33553e-011	-5.32697e-011	-5.31726e-011	
FineR180	-5.89803e-011	-5.82989e-011	-5.78268e-011	-5.74027e-011	-5.70438e-011	-5.68281e-011	-5.64699e-011	-5.62566e-011	-5.59587e-011	-5.5704e-011	-5.54689e-011	-5.52235e-011	-5.50572e-011	-5.48642e-011	-5.47184e-011	-5.45615e-011	-5.4424e-011	-5.42706e-011	-5.40982e-011	-5.39796e-011	-5.38096e-011	-5.36282e-011	-5.3529e-011	-5.34126e-011	-5.32773e-011	-5.31802e-011	
FineR190	-5.89971e-011	-5.83251e-011	-5.78268e-011	-5.7418e-011	-5.70867e-011	-5.68133e-011	-5.6513e-011	-5.62482e-011	-5.59876e-011	-5.5666e-011	-5.55123e-011	-5.52748e-011	-5.50868e-011	-5.49077e-011	-5.47619e-011	-5.45477e-011	-5.44377e-011	-5.42706e-011	-5.41059e-011	-5.39796e-011	-5.3796e-011	-5.36147e-011	-5.34983e-011	-5.34126e-011	-5.32697e-011	-5.31858e-011	
FineR200	-5.89803e-011	-5.83251e-011	-5.78364e-011	-5.7418e-011	-5.70438e-011	-5.6822e-011	-5.65508e-011	-5.62482e-011	-5.59504e-011	-5.57093e-011	-5.54741e-011	-5.52529e-011	-5.50486e-011	-5.49216e-011	-5.47184e-011	-5.45615e-011	-5.44515e-011	-5.42843e-011	-5.40982e-011	-5.39413e-011	-5.38096e-011	-5.3672e-011	-5.3548e-011	-5.34126e-011	-5.32697e-011	-5.31858e-011	
FineR210	-5.90227e-011	-5.83676e-011	-5.78694e-011	-5.74607e-011	-5.70494e-011	-5.68563e-011	-5.6513e-011	-5.6268e-011	-5.59937e-011	-5.57093e-011	-5.54741e-011	-5.52669e-011	-5.50625e-011	-5.49077e-011	-5.46801e-011	-5.45615e-011	-5.43995e-011	-5.4246e-011	-5.40599e-011	-5.39336e-011	-5.38096e-011	-5.3672e-011	-5.35345e-011	-5.33743e-011	-5.33135e-011	-5.31782e-011	
FineR220	-5.90227e-011	-5.83055e-011	-5.7885e-011	-5.7418e-011	-5.70643e-011	-5.69119e-011	-5.65508e-011	-5.62104e-011	-5.59557e-011	-5.57093e-011	-5.54741e-011	-5.52669e-011	-5.50546e-011	-5.48617e-011	-5.47619e-011	-5.45615e-011	-5.44568e-011	-5.42323e-011	-5.41173e-011	-5.39336e-011	-5.3796e-011	-5.36337e-011	-5.3548e-011	-5.3405e-011	-5.33211e-011	-5.31858e-011	
FineR230	-5.90046e-011	-5.83676e-011	-5.78485e-011	-5.74607e-011	-5.70643e-011	-5.68335e-011	-5.65561e-011	-5.62535e-011	-5.59937e-011	-5.57011e-011	-5.54741e-011	-5.52287e-011	-5.50546e-011	-5.48755e-011	-5.47237e-011	-5.46051e-011	-5.44054e-011	-5.42383e-011	-5.41036e-011	-5.39472e-011	-5.38533e-011	-5.36396e-011	-5.35097e-011	-5.33667e-011	-5.33135e-011	-5.31782e-011	
FineR240	-5.90046e-011	-5.83215e-011	-5.78694e-011	-5.74515e-011	-5.71072e-011	-5.68335e-011	-5.65183e-011	-5.62535e-011	-5.59557e-011	-5.57011e-011	-5.54741e-011	-5.52287e-011	-5.50546e-011	-5.49077e-011	-5.47619e-011	-5.4559e-011	-5.44354e-011	-5.4282e-011	-5.41036e-011	-5.39472e-011	-5.38074e-011	-5.36472e-011	-5.35097e-011	-5.33667e-011	-5.32752e-011	-5.31782e-011	
FineR250	-5.89934e-011	-5.83574e-011	-5.78485e-011	-5.74237e-011	-5.70643e-011	-5.68335e-011	-5.6513e-011	-5.6268e-011	-5.59557e-011	-5.57011e-011	-5.54741e-011	-5.52287e-011	-5.50546e-011	-5.48755e-011	-5.47619e-011	-5.4559e-011	-5.44354e-011	-5.4276e-011	-5.41036e-011	-5.39773e-011	-5.38074e-011	-5.36396e-011	-5.35097e-011	-5.33667e-011	-5.33135e-011	-5.31782e-011	
MinCout:	-5.19304e-011	FineR:	0	FineC:	250

	FineC130	FineC131	FineC132	FineC133	FineC134	FineC135	FineC136	FineC137	FineC138	FineC139	FineC140	FineC141	FineC142	FineC143	FineC144	FineC145	FineC146	FineC147	FineC148	FineC149	FineC150	
FineR0	-5.3592e-011	-5.35595e-011	-5.3557e-011	-5.35546e-011	-5.3522e-011	-5.35119e-011	-5.34656e-011	-5.34769e-011	-5.34443e-011	-5.3442e-011	-5.34342e-011	-5.3407e-011	-5.3353e-011	-5.33589e-011	-5.33181e-011	-5.3324e-011	-5.32914e-011	-5.3289e-011	-5.32428e-011	-5.32405e-011	-5.32386e-011	
FineR1	-5.36069e-011	-5.35719e-011	-5.35641e-011	-5.35754e-011	-5.35345e-011	-5.35326e-011	-5.34995e-011	-5.34917e-011	-5.34592e-011	-5.3449e-011	-5.34603e-011	-5.3414e-011	-5.34253e-011	-5.33791e-011	-5.33387e-011	-5.33364e-011	-5.33038e-011	-5.32653e-011	-5.33073e-011	-5.32611e-011	-5.32724e-011	
FineR2	-5.36307e-011	-5.35844e-011	-5.35572e-011	-5.35548e-011	-5.35607e-011	-5.3512e-011	-5.34658e-011	-5.35154e-011	-5.34692e-011	-5.34805e-011	-5.34479e-011	-5.34455e-011	-5.33993e-011	-5.34106e-011	-5.33702e-011	-5.33678e-011	-5.33216e-011	-5.33713e-011	-5.33251e-011	-5.32925e-011	-5.32902e-011	
FineR3	-5.36238e-011	-5.36214e-011	-5.35888e-011	-5.35922e-011	-5.3546e-011	-5.35435e-011	-5.35548e-011	-5.35086e-011	-5.35061e-011	-5.34599e-011	-5.35096e-011	-5.34308e-011	-5.34284e-011	-5.33822e-011	-5.34319e-011	-5.33993e-011	-5.33531e-011	-5.33507e-011	-5.33429e-011	-5.33464e-011	-5.32754e-011	
FineR4	-5.36776e-011	-5.36888e-011	-5.36426e-011	-5.36539e-011	-5.35998e-011	-5.3611e-011	-5.35702e-011	-5.35761e-011	-5.35298e-011	-5.35027e-011	-5.35387e-011	-5.34924e-011	-5.34599e-011	-5.34575e-011	-5.34035e-011	-5.34531e-011	-5.33685e-011	-5.34182e-011	-5.33336e-011	-5.33833e-011	-5.33507e-011	
FineR5	-5.37067e-011	-5.36796e-011	-5.36771e-011	-5.3683e-011	-5.36421e-011	-5.36017e-011	-5.36377e-011	-5.35668e-011	-5.35643e-011	-5.35702e-011	-5.35293e-011	-5.35352e-011	-5.35328e-011	-5.34788e-011	-5.349e-011	-5.34438e-011	-5.34113e-011	-5.34089e-011	-5.33763e-011	-5.34046e-011	-5.33661e-011	
FineR6	-5.37549e-011	-5.37087e-011	-5.37199e-011	-5.37095e-011	-5.36771e-011	-5.36746e-011	-5.36421e-011	-5.36396e-011	-5.35934e-011	-5.35531e-011	-5.35643e-011	-5.35619e-011	-5.35157e-011	-5.35269e-011	-5.34807e-011	-5.34783e-011	-5.34763e-011	-5.34876e-011	-5.34414e-011	-5.33952e-011	-5.34065e-011	
FineR7	-5.37815e-011	-5.3749e-011	-5.37848e-011	-5.37062e-011	-5.37037e-011	-5.36712e-011	-5.36687e-011	-5.36662e-011	-5.36337e-011	-5.35875e-011	-5.35988e-011	-5.35525e-011	-5.35807e-011	-5.35098e-011	-5.35594e-011	-5.35132e-011	-5.35245e-011	-5.34783e-011	-5.34895e-011	-5.34433e-011	-5.34278e-011	
FineR8	-5.37781e-011	-5.37893e-011	-5.37815e-011	-5.37406e-011	-5.3744e-011	-5.37361e-011	-5.3709e-011	-5.36628e-011	-5.3674e-011	-5.362e-011	-5.36391e-011	-5.35929e-011	-5.36288e-011	-5.35885e-011	-5.3586e-011	-5.35535e-011	-5.35073e-011	-5.35186e-011	-5.35545e-011	-5.347e-011	-5.34759e-011	
FineR9	-5.38184e-011	-5.38542e-011	-5.37697e-011	-5.37809e-011	-5.37705e-011	-5.37381e-011	-5.36919e-011	-5.37031e-011	-5.37006e-011	-5.36681e-011	-5.36657e-011	-5.36716e-011	-5.36613e-011	-5.36288e-011	-5.36263e-011	-5.35938e-011	-5.35477e-011	-5.35452e-011	-5.35565e-011	-5.35103e-011	-5.35084e-011	
FineR10	-5.38371e-011	-5.38483e-011	-5.38021e-011	-5.37996e-011	-5.38108e-011	-5.37784e-011	-5.37759e-011	-5.37297e-011	-5.37409e-011	-5.36947e-011	-5.3706e-011	-5.36981e-011	-5.36495e-011	-5.36554e-011	-5.36529e-011	-5.35821e-011	-5.3618e-011	-5.35855e-011	-5.35831e-011	-5.35506e-011	-5.34966e-011	
FineR11	-5.38774e-011	-5.38886e-011	-5.38424e-011	-5.38399e-011	-5.38511e-011	-5.38187e-011	-5.38162e-011	-5.38137e-011	-5.37812e-011	-5.37787e-011	-5.37384e-011	-5.36923e-011	-5.36898e-011	-5.36957e-011	-5.36549e-011	-5.36661e-011	-5.36583e-011	-5.36121e-011	-5.36156e-011	-5.35694e-011	-5.36268e-011	
FineR12	-5.3923e-011	-5.38768e-011	-5.39264e-011	-5.38802e-011	-5.38777e-011	-5.38506e-011	-5.38103e-011	-5.38461e-011	-5.37999e-011	-5.37728e-011	-5.38087e-011	-5.37763e-011	-5.37738e-011	-5.37413e-011	-5.36951e-011	-5.36927e-011	-5.36602e-011	-5.365e-011	-5.36175e-011	-5.36534e-011	-5.36209e-011	
FineR13	-5.39554e-011	-5.39092e-011	-5.39205e-011	-5.39317e-011	-5.38855e-011	-5.3883e-011	-5.38427e-011	-5.38481e-011	-5.38156e-011	-5.38053e-011	-5.37807e-011	-5.38165e-011	-5.37679e-011	-5.37354e-011	-5.3733e-011	-5.36868e-011	-5.37364e-011	-5.36902e-011	-5.36578e-011	-5.36937e-011	-5.36151e-011	
FineR14	-5.39957e-011	-5.39112e-011	-5.39608e-011	-5.39258e-011	-5.39179e-011	-5.39154e-011	-5.38883e-011	-5.38422e-011	-5.38917e-011	-5.38456e-011	-5.38568e-011	-5.38106e-011	-5.38081e-011	-5.37679e-011	-5.37654e-011	-5.3733e-011	-5.37305e-011	-5.36844e-011	-5.3734e-011	-5.36878e-011	-5.36553e-011	
FineR15	-5.39977e-011	-5.39872e-011	-5.39548e-011	-5.39661e-011	-5.39635e-011	-5.39095e-011	-5.39286e-011	-5.38746e-011	-5.38721e-011	-5.38833e-011	-5.38372e-011	-5.38484e-011	-5.3816e-011	-5.38518e-011	-5.37673e-011	-5.38091e-011	-5.37383e-011	-5.37742e-011	-5.37281e-011	-5.36819e-011	-5.36932e-011	
FineR16	-5.40439e-011	-5.39892e-011	-5.39926e-011	-5.39542e-011	-5.39576e-011	-5.39551e-011	-5.39227e-011	-5.39339e-011	-5.38662e-011	-5.38853e-011	-5.38833e-011	-5.38808e-011	-5.38347e-011	-5.38459e-011	-5.37998e-011	-5.3811e-011	-5.37649e-011	-5.37761e-011	-5.37605e-011	-5.37718e-011	-5.37256e-011	
FineR17	-5.40678e-011	-5.40354e-011	-5.40328e-011	-5.40362e-011	-5.39517e-011	-5.39875e-011	-5.39551e-011	-5.3928e-011	-5.39123e-011	-5.39236e-011	-5.39211e-011	-5.38749e-011	-5.38862e-011	-5.384e-011	-5.38376e-011	-5.38051e-011	-5.38086e-011	-5.37702e-011	-5.38061e-011	-5.37659e-011	-5.37197e-011	
FineR18	-5.40756e-011	-5.40731e-011	-5.40328e-011	-5.40381e-011	-5.40277e-011	-5.39954e-011	-5.39928e-011	-5.39604e-011	-5.39717e-011	-5.39692e-011	-5.39152e-011	-5.39073e-011	-5.38803e-011	-5.38778e-011	-5.387e-011	-5.38812e-011	-5.38351e-011	-5.38464e-011	-5.38139e-011	-5.37678e-011	-5.37653e-011	
FineR19	-5.4108e-011	-5.40672e-011	-5.40784e-011	-5.40244e-011	-5.40356e-011	-5.40331e-011	-5.40007e-011	-5.39982e-011	-5.39579e-011	-5.39495e-011	-5.39991e-011	-5.39205e-011	-5.39564e-011	-5.3924e-011	-5.39215e-011	-5.38753e-011	-5.38866e-011	-5.38405e-011	-5.38386e-011	-5.37978e-011	-5.38115e-011	
FineR20	-5.41457e-011	-5.40995e-011	-5.41029e-011	-5.41004e-011	-5.40297e-011	-5.40655e-011	-5.39948e-011	-5.39844e-011	-5.39903e-011	-5.39878e-011	-5.39991e-011	-5.39529e-011	-5.39642e-011	-5.3918e-011	-5.39293e-011	-5.38831e-011	-5.38729e-011	-5.38651e-011	-5.38841e-011	-5.38302e-011	-5.38056e-011	
MinCout:	-5.32386e-011	FineR:	0	FineC:	150

