	CoarseC0	CoarseC10	CoarseC20	CoarseC30	CoarseC40	CoarseC50	CoarseC60	CoarseC70	CoarseC80	CoarseC90	CoarseC100	CoarseC110	CoarseC120	CoarseC130	CoarseC140	CoarseC150	CoarseC160	CoarseC170	CoarseC180	CoarseC190	CoarseC200	CoarseC210	CoarseC220	CoarseC230	CoarseC240	CoarseC250	
CoarseR0	-1.73782e-011	-1.45083e-011	-1.35911e-011	-1.29258e-011	-1.23237e-011	-1.17232e-011	-1.09826e-011	-1.05031e-011	-1.00808e-011	-9.71353e-012	-9.4647e-012	-9.41943e-012	-8.8437e-012	-8.65772e-012	-8.40486e-012	-8.27119e-012	-8.06934e-012	-7.93389e-012	-7.79772e-012	-7.72937e-012	-7.59213e-012	-7.52325e-012	-7.50677e-012	-7.43745e-012	-7.49015e-012	-7.42059e-012	
CoarseR10	-1.4428e-010	-1.40723e-010	-1.37482e-010	-1.35006e-010	-1.32773e-010	-1.30761e-010	-1.29251e-010	-1.2802e-010	-1.26705e-010	-1.25572e-010	-1.24469e-010	-1.23589e-010	-1.22748e-010	-1.22083e-010	-1.21461e-010	-1.21066e-010	-1.20666e-010	-1.2026e-010	-1.20141e-010	-1.19727e-010	-1.19603e-010	-1.19477e-010	-1.19584e-010	-1.19455e-010	-1.19626e-010	-1.1956e-010	
CoarseR20	-1.92991e-010	-1.88581e-010	-1.84121e-010	-1.80827e-010	-1.77581e-010	-1.74749e-010	-1.72216e-010	-1.70005e-010	-1.68387e-010	-1.66441e-010	-1.65076e-010	-1.6398e-010	-1.62867e-010	-1.62026e-010	-1.61167e-010	-1.60903e-010	-1.60313e-010	-1.59401e-010	-1.594e-010	-1.59078e-010	-1.5875e-010	-1.58724e-010	-1.58681e-010	-1.58369e-010	-1.58634e-010	-1.586e-010	
CoarseR30	-2.13294e-010	-2.07777e-010	-2.02111e-010	-1.97169e-010	-1.93567e-010	-1.90131e-010	-1.86719e-010	-1.84026e-010	-1.81717e-010	-1.79466e-010	-1.7781e-010	-1.76444e-010	-1.75062e-010	-1.7402e-010	-1.72913e-010	-1.71886e-010	-1.71675e-010	-1.70923e-010	-1.70648e-010	-1.70102e-010	-1.69864e-010	-1.6962e-010	-1.69345e-010	-1.69389e-010	-1.69452e-010	-1.69198e-010	
CoarseR40	-2.18845e-010	-2.13054e-010	-2.07294e-010	-2.02257e-010	-1.97973e-010	-1.9384e-010	-1.90784e-010	-1.87253e-010	-1.85136e-010	-1.82955e-010	-1.80653e-010	-1.79015e-010	-1.77666e-010	-1.7635e-010	-1.75266e-010	-1.74558e-010	-1.73375e-010	-1.73095e-010	-1.72225e-010	-1.71536e-010	-1.70941e-010	-1.70731e-010	-1.70513e-010	-1.70246e-010	-1.69974e-010	-1.69661e-010	
CoarseR50	-2.16212e-010	-2.11938e-010	-2.06935e-010	-2.0153e-010	-1.9744e-010	-1.93362e-010	-1.90262e-010	-1.8741e-010	-1.846e-010	-1.82052e-010	-1.79985e-010	-1.78087e-010	-1.7648e-010	-1.75294e-010	-1.74205e-010	-1.72524e-010	-1.71496e-010	-1.7075e-010	-1.70278e-010	-1.69585e-010	-1.68831e-010	-1.68861e-010	-1.67813e-010	-1.67831e-010	-1.67145e-010	-1.66927e-010	
CoarseR60	-2.13798e-010	-2.09866e-010	-2.04005e-010	-1.99395e-010	-1.94775e-010	-1.91127e-010	-1.87877e-010	-1.84569e-010	-1.82192e-010	-1.80067e-010	-1.78105e-010	-1.76056e-010	-1.73894e-010	-1.72458e-010	-1.71682e-010	-1.70457e-010	-1.69146e-010	-1.68603e-010	-1.67389e-010	-1.66383e-010	-1.65546e-010	-1.64921e-010	-1.64468e-010	-1.64035e-010	-1.63328e-010	-1.63262e-010	
CoarseR70	-2.09193e-010	-2.0405e-010	-1.9868e-010	-1.93483e-010	-1.90015e-010	-1.85932e-010	-1.83053e-010	-1.79975e-010	-1.77692e-010	-1.75605e-010	-1.73849e-010	-1.7191e-010	-1.69793e-010	-1.68831e-010	-1.67403e-010	-1.66648e-010	-1.6513e-010	-1.64222e-010	-1.63358e-010	-1.62641e-010	-1.62014e-010	-1.61701e-010	-1.61012e-010	-1.60058e-010	-1.60069e-010	-1.59276e-010	
CoarseR80	-2.05887e-010	-2.00895e-010	-1.94298e-010	-1.89709e-010	-1.8449e-010	-1.80127e-010	-1.77974e-010	-1.75657e-010	-1.74008e-010	-1.72279e-010	-1.70288e-010	-1.68752e-010	-1.67233e-010	-1.65671e-010	-1.63784e-010	-1.62691e-010	-1.61792e-010	-1.61195e-010	-1.59691e-010	-1.59516e-010	-1.58435e-010	-1.57889e-010	-1.57042e-010	-1.56776e-010	-1.56402e-010	-1.5608e-010	
CoarseR90	-2.0054e-010	-1.95515e-010	-1.88836e-010	-1.83181e-010	-1.78417e-010	-1.75806e-010	-1.72457e-010	-1.70752e-010	-1.68593e-010	-1.6666e-010	-1.65676e-010	-1.63734e-010	-1.62444e-010	-1.61205e-010	-1.60472e-010	-1.59355e-010	-1.58388e-010	-1.57719e-010	-1.566e-010	-1.55533e-010	-1.55288e-010	-1.54677e-010	-1.53823e-010	-1.53526e-010	-1.53227e-010	-1.52313e-010	
CoarseR100	-1.95582e-010	-1.88767e-010	-1.82451e-010	-1.77504e-010	-1.72646e-010	-1.69244e-010	-1.66491e-010	-1.64305e-010	-1.62968e-010	-1.61809e-010	-1.60193e-010	-1.59288e-010	-1.58117e-010	-1.5705e-010	-1.55794e-010	-1.54884e-010	-1.54218e-010	-1.52996e-010	-1.52817e-010	-1.51616e-010	-1.50944e-010	-1.50634e-010	-1.50324e-010	-1.49471e-010	-1.48792e-010	-1.48791e-010	
CoarseR110	-1.93953e-010	-1.86144e-010	-1.78763e-010	-1.72796e-010	-1.6782e-010	-1.64228e-010	-1.61284e-010	-1.59294e-010	-1.57943e-010	-1.56868e-010	-1.56039e-010	-1.54491e-010	-1.53935e-010	-1.53253e-010	-1.52103e-010	-1.50988e-010	-1.50194e-010	-1.49197e-010	-1.48983e-010	-1.48179e-010	-1.47582e-010	-1.46616e-010	-1.46324e-010	-1.46105e-010	-1.45698e-010	-1.45291e-010	
CoarseR120	-1.93068e-010	-1.86307e-010	-1.77534e-010	-1.6984e-010	-1.64045e-010	-1.60475e-010	-1.57358e-010	-1.55573e-010	-1.54456e-010	-1.53182e-010	-1.51968e-010	-1.5172e-010	-1.50477e-010	-1.49534e-010	-1.49048e-010	-1.48931e-010	-1.47882e-010	-1.46813e-010	-1.46393e-010	-1.45447e-010	-1.44508e-010	-1.44192e-010	-1.43838e-010	-1.43643e-010	-1.42736e-010	-1.4279e-010	
CoarseR130	-1.94077e-010	-1.87013e-010	-1.78054e-010	-1.70547e-010	-1.63073e-010	-1.58335e-010	-1.545e-010	-1.52371e-010	-1.51212e-010	-1.49719e-010	-1.49548e-010	-1.48203e-010	-1.48018e-010	-1.47166e-010	-1.46779e-010	-1.45693e-010	-1.45031e-010	-1.45303e-010	-1.44829e-010	-1.4433e-010	-1.4332e-010	-1.42519e-010	-1.41484e-010	-1.41246e-010	-1.40842e-010	-1.40864e-010	
CoarseR140	-1.96807e-010	-1.8991e-010	-1.80273e-010	-1.72574e-010	-1.64517e-010	-1.58051e-010	-1.52958e-010	-1.5047e-010	-1.4829e-010	-1.46844e-010	-1.4693e-010	-1.45883e-010	-1.45121e-010	-1.44616e-010	-1.43872e-010	-1.43393e-010	-1.42878e-010	-1.42136e-010	-1.4203e-010	-1.4175e-010	-1.41368e-010	-1.4081e-010	-1.40389e-010	-1.39497e-010	-1.39048e-010	-1.38601e-010	
CoarseR150	-2.01085e-010	-1.93721e-010	-1.84473e-010	-1.76077e-010	-1.67523e-010	-1.605e-010	-1.53666e-010	-1.49526e-010	-1.47302e-010	-1.4554e-010	-1.44243e-010	-1.43263e-010	-1.43055e-010	-1.42414e-010	-1.42516e-010	-1.41905e-010	-1.411e-010	-1.4075e-010	-1.40404e-010	-1.40243e-010	-1.39612e-010	-1.39452e-010	-1.38541e-010	-1.38084e-010	-1.38104e-010	-1.36651e-010	
CoarseR160	-2.04384e-010	-1.98691e-010	-1.89454e-010	-1.8094e-010	-1.71841e-010	-1.65273e-010	-1.57792e-010	-1.51902e-010	-1.47129e-010	-1.44944e-010	-1.43686e-010	-1.42944e-010	-1.42094e-010	-1.4156e-010	-1.41536e-010	-1.41081e-010	-1.40869e-010	-1.40215e-010	-1.39779e-010	-1.3909e-010	-1.38885e-010	-1.38688e-010	-1.38193e-010	-1.37514e-010	-1.3703e-010	-1.36525e-010	
CoarseR170	-2.09179e-010	-2.04813e-010	-1.96248e-010	-1.87002e-010	-1.77737e-010	-1.69297e-010	-1.61755e-010	-1.55411e-010	-1.49981e-010	-1.45858e-010	-1.431e-010	-1.41863e-010	-1.41319e-010	-1.40587e-010	-1.4018e-010	-1.40058e-010	-1.4023e-010	-1.39937e-010	-1.38764e-010	-1.38493e-010	-1.37563e-010	-1.37965e-010	-1.37446e-010	-1.37403e-010	-1.36403e-010	-1.35867e-010	
CoarseR180	-2.14074e-010	-2.11995e-010	-2.01926e-010	-1.92583e-010	-1.83301e-010	-1.74726e-010	-1.67373e-010	-1.61047e-010	-1.55033e-010	-1.49944e-010	-1.46222e-010	-1.43591e-010	-1.42106e-010	-1.40996e-010	-1.40469e-010	-1.39779e-010	-1.3956e-010	-1.39188e-010	-1.38636e-010	-1.3807e-010	-1.37538e-010	-1.36515e-010	-1.36213e-010	-1.36318e-010	-1.36249e-010	-1.35231e-010	
CoarseR190	-2.18617e-010	-2.18493e-010	-2.09134e-010	-1.99618e-010	-1.8916e-010	-1.80652e-010	-1.72911e-010	-1.6658e-010	-1.60483e-010	-1.54639e-010	-1.49835e-010	-1.45887e-010	-1.4354e-010	-1.41832e-010	-1.41132e-010	-1.40514e-010	-1.39743e-010	-1.39758e-010	-1.39318e-010	-1.38712e-010	-1.38335e-010	-1.37517e-010	-1.36908e-010	-1.36315e-010	-1.35748e-010	-1.35171e-010	
CoarseR200	-2.24129e-010	-2.24276e-010	-2.16532e-010	-2.06518e-010	-1.9599e-010	-1.87812e-010	-1.79175e-010	-1.72813e-010	-1.66286e-010	-1.60854e-010	-1.55225e-010	-1.5031e-010	-1.46528e-010	-1.4453e-010	-1.43661e-010	-1.4219e-010	-1.40888e-010	-1.4079e-010	-1.39787e-010	-1.39096e-010	-1.39141e-010	-1.38287e-010	-1.37907e-010	-1.36845e-010	-1.36453e-010	-1.3537e-010	
CoarseR210	-2.28834e-010	-2.30004e-010	-2.23602e-010	-2.13429e-010	-2.03177e-010	-1.94369e-010	-1.86219e-010	-1.78916e-010	-1.73241e-010	-1.66975e-010	-1.61863e-010	-1.56377e-010	-1.51721e-010	-1.48176e-010	-1.45872e-010	-1.44567e-010	-1.43142e-010	-1.42248e-010	-1.412e-010	-1.41098e-010	-1.40163e-010	-1.39738e-010	-1.39328e-010	-1.38224e-010	-1.37131e-010	-1.36721e-010	
CoarseR220	-2.3331e-010	-2.35292e-010	-2.30951e-010	-2.20475e-010	-2.09676e-010	-2.01196e-010	-1.92809e-010	-1.8554e-010	-1.79004e-010	-1.72826e-010	-1.67233e-010	-1.61827e-010	-1.56795e-010	-1.52864e-010	-1.49833e-010	-1.47304e-010	-1.45317e-010	-1.4432e-010	-1.43229e-010	-1.41928e-010	-1.41871e-010	-1.40937e-010	-1.40242e-010	-1.39585e-010	-1.38483e-010	-1.37843e-010	
CoarseR230	-2.36706e-010	-2.40674e-010	-2.37323e-010	-2.27437e-010	-2.16165e-010	-2.07593e-010	-1.98664e-010	-1.91413e-010	-1.84489e-010	-1.77821e-010	-1.72344e-010	-1.6695e-010	-1.61097e-010	-1.56714e-010	-1.53298e-010	-1.49788e-010	-1.47379e-010	-1.45445e-010	-1.44723e-010	-1.44111e-010	-1.42867e-010	-1.42095e-010	-1.41168e-010	-1.4047e-010	-1.39997e-010	-1.38892e-010	
CoarseR240	-2.41846e-010	-2.44992e-010	-2.43026e-010	-2.32952e-010	-2.21973e-010	-2.1283e-010	-2.03836e-010	-1.95836e-010	-1.8878e-010	-1.82665e-010	-1.7717e-010	-1.71466e-010	-1.65924e-010	-1.60813e-010	-1.56963e-010	-1.53017e-010	-1.50003e-010	-1.47594e-010	-1.4595e-010	-1.45045e-010	-1.4397e-010	-1.43187e-010	-1.42247e-010	-1.4151e-010	-1.4103e-010	-1.39923e-010	
CoarseR250	-2.44622e-010	-2.49188e-010	-2.47324e-010	-2.38078e-010	-2.26632e-010	-2.16823e-010	-2.0824e-010	-2.00774e-010	-1.93296e-010	-1.87133e-010	-1.81312e-010	-1.75618e-010	-1.70537e-010	-1.65278e-010	-1.60273e-010	-1.56399e-010	-1.527e-010	-1.4918e-010	-1.47707e-010	-1.45896e-010	-1.45251e-010	-1.43792e-010	-1.43024e-010	-1.42279e-010	-1.41108e-010	-1.40631e-010	
MinCout:	-7.42059e-012	CoarseR:	0	CoarseC:	250

	CoarseC240	CoarseC241	CoarseC242	CoarseC243	CoarseC244	CoarseC245	CoarseC246	CoarseC247	CoarseC248	CoarseC249	CoarseC250	CoarseC251	CoarseC252	CoarseC253	CoarseC254	CoarseC255	CoarseC255	CoarseC255	CoarseC255	CoarseC255	CoarseC255	
CoarseR180	-1.36238e-010	-1.35781e-010	-1.35771e-010	-1.36248e-010	-1.35974e-010	-1.35974e-010	-1.35506e-010	-1.35506e-010	-1.35689e-010	-1.36168e-010	-1.35701e-010	-1.35701e-010	-1.35234e-010	-1.35425e-010	-1.35417e-010	-1.34958e-010	-1.35417e-010	-1.35417e-010	-1.35417e-010	-1.35417e-010	-1.35417e-010	
CoarseR181	-1.36699e-010	-1.36066e-010	-1.36249e-010	-1.35791e-010	-1.35781e-010	-1.35781e-010	-1.35314e-010	-1.35983e-010	-1.35974e-010	-1.35515e-010	-1.35506e-010	-1.35506e-010	-1.35231e-010	-1.35231e-010	-1.35222e-010	-1.34764e-010	-1.35242e-010	-1.34764e-010	-1.35242e-010	-1.34764e-010	-1.34764e-010	
CoarseR182	-1.36984e-010	-1.36984e-010	-1.35601e-010	-1.35601e-010	-1.3559e-010	-1.35609e-010	-1.35791e-010	-1.35791e-010	-1.35323e-010	-1.35323e-010	-1.35314e-010	-1.35038e-010	-1.35515e-010	-1.35506e-010	-1.35506e-010	-1.35239e-010	-1.35048e-010	-1.35231e-010	-1.35239e-010	-1.35048e-010	-1.35239e-010	
CoarseR183	-1.36338e-010	-1.36338e-010	-1.35887e-010	-1.35875e-010	-1.35875e-010	-1.35601e-010	-1.35601e-010	-1.3559e-010	-1.35609e-010	-1.35791e-010	-1.35791e-010	-1.35323e-010	-1.35323e-010	-1.35314e-010	-1.35047e-010	-1.35038e-010	-1.35038e-010	-1.35038e-010	-1.35038e-010	-1.35038e-010	-1.35038e-010	
CoarseR184	-1.36821e-010	-1.36808e-010	-1.36808e-010	-1.35686e-010	-1.35423e-010	-1.35887e-010	-1.35887e-010	-1.35419e-010	-1.35419e-010	-1.35601e-010	-1.35143e-010	-1.35132e-010	-1.35598e-010	-1.35333e-010	-1.35333e-010	-1.35323e-010	-1.35323e-010	-1.35323e-010	-1.35323e-010	-1.35323e-010	-1.35323e-010	
CoarseR185	-1.36633e-010	-1.36619e-010	-1.36638e-010	-1.36821e-010	-1.3571e-010	-1.35698e-010	-1.3523e-010	-1.35423e-010	-1.35899e-010	-1.35429e-010	-1.35419e-010	-1.35419e-010	-1.35601e-010	-1.35143e-010	-1.35132e-010	-1.34674e-010	-1.34674e-010	-1.35132e-010	-1.35132e-010	-1.35132e-010	-1.35132e-010	
CoarseR186	-1.36907e-010	-1.36907e-010	-1.36451e-010	-1.36633e-010	-1.35985e-010	-1.35985e-010	-1.3571e-010	-1.3571e-010	-1.35241e-010	-1.35241e-010	-1.3523e-010	-1.34965e-010	-1.35429e-010	-1.35429e-010	-1.35419e-010	-1.35143e-010	-1.35153e-010	-1.35153e-010	-1.35153e-010	-1.35153e-010	-1.35153e-010	
CoarseR187	-1.37194e-010	-1.36936e-010	-1.36921e-010	-1.36921e-010	-1.36451e-010	-1.35536e-010	-1.35524e-010	-1.35998e-010	-1.35529e-010	-1.35517e-010	-1.3571e-010	-1.35241e-010	-1.35241e-010	-1.3523e-010	-1.34965e-010	-1.35429e-010	-1.34954e-010	-1.34954e-010	-1.35429e-010	-1.34954e-010	-1.34954e-010	
CoarseR188	-1.36751e-010	-1.36751e-010	-1.36736e-010	-1.36738e-010	-1.36936e-010	-1.35812e-010	-1.35812e-010	-1.35342e-010	-1.35536e-010	-1.35524e-010	-1.35066e-010	-1.35529e-010	-1.35529e-010	-1.35253e-010	-1.35241e-010	-1.35241e-010	-1.35241e-010	-1.35241e-010	-1.35241e-010	-1.35241e-010	-1.35241e-010	
CoarseR189	-1.3704e-010	-1.37024e-010	-1.36568e-010	-1.36553e-010	-1.36736e-010	-1.36279e-010	-1.36738e-010	-1.35631e-010	-1.35812e-010	-1.35355e-010	-1.35342e-010	-1.35342e-010	-1.35066e-010	-1.35541e-010	-1.35529e-010	-1.35072e-010	-1.35072e-010	-1.35072e-010	-1.35072e-010	-1.35072e-010	-1.35072e-010	
CoarseR190	-1.36857e-010	-1.36858e-010	-1.36842e-010	-1.3704e-010	-1.36568e-010	-1.36568e-010	-1.36553e-010	-1.35641e-010	-1.35644e-010	-1.35644e-010	-1.35825e-010	-1.35368e-010	-1.35355e-010	-1.35342e-010	-1.34886e-010	-1.35066e-010	-1.35066e-010	-1.35066e-010	-1.35066e-010	-1.35066e-010	-1.35066e-010	
CoarseR191	-1.36675e-010	-1.36675e-010	-1.36857e-010	-1.36873e-010	-1.36858e-010	-1.37056e-010	-1.36584e-010	-1.35916e-010	-1.3546e-010	-1.35641e-010	-1.35184e-010	-1.35644e-010	-1.35644e-010	-1.35174e-010	-1.35368e-010	-1.35355e-010	-1.35355e-010	-1.35355e-010	-1.35355e-010	-1.35355e-010	-1.35355e-010	
CoarseR192	-1.36494e-010	-1.37164e-010	-1.36691e-010	-1.36691e-010	-1.36675e-010	-1.36857e-010	-1.36873e-010	-1.36858e-010	-1.35945e-010	-1.35931e-010	-1.3546e-010	-1.3546e-010	-1.34991e-010	-1.35184e-010	-1.35644e-010	-1.35187e-010	-1.35187e-010	-1.35187e-010	-1.35187e-010	-1.35187e-010	-1.35187e-010	
CoarseR193	-1.36983e-010	-1.36511e-010	-1.36981e-010	-1.37164e-010	-1.36708e-010	-1.36691e-010	-1.36675e-010	-1.36417e-010	-1.36873e-010	-1.35764e-010	-1.3575e-010	-1.35474e-010	-1.35474e-010	-1.3546e-010	-1.35004e-010	-1.35184e-010	-1.34991e-010	-1.34991e-010	-1.34991e-010	-1.34991e-010	-1.34991e-010	
CoarseR194	-1.37274e-010	-1.36801e-010	-1.36983e-010	-1.36527e-010	-1.36981e-010	-1.36981e-010	-1.3651e-010	-1.36708e-010	-1.36691e-010	-1.35568e-010	-1.35763e-010	-1.35764e-010	-1.35764e-010	-1.35294e-010	-1.35294e-010	-1.35474e-010	-1.35474e-010	-1.35474e-010	-1.35474e-010	-1.35474e-010	-1.35474e-010	
CoarseR195	-1.36623e-010	-1.37292e-010	-1.36819e-010	-1.36819e-010	-1.36801e-010	-1.36329e-010	-1.36998e-010	-1.36981e-010	-1.36526e-010	-1.36054e-010	-1.35583e-010	-1.35583e-010	-1.35112e-010	-1.35779e-010	-1.35764e-010	-1.35294e-010	-1.35308e-010	-1.35308e-010	-1.35308e-010	-1.35308e-010	-1.35308e-010	
CoarseR196	-1.37114e-010	-1.36659e-010	-1.3711e-010	-1.37092e-010	-1.36638e-010	-1.36819e-010	-1.36819e-010	-1.36346e-010	-1.36998e-010	-1.36542e-010	-1.35873e-010	-1.35403e-010	-1.35598e-010	-1.35583e-010	-1.35598e-010	-1.35583e-010	-1.35583e-010	-1.35583e-010	-1.35583e-010	-1.35583e-010	-1.35583e-010	
CoarseR197	-1.37406e-010	-1.36933e-010	-1.36914e-010	-1.36659e-010	-1.3711e-010	-1.3711e-010	-1.36638e-010	-1.36836e-010	-1.36819e-010	-1.36817e-010	-1.35709e-010	-1.35889e-010	-1.35889e-010	-1.35418e-010	-1.35403e-010	-1.35598e-010	-1.35598e-010	-1.35598e-010	-1.35598e-010	-1.35598e-010	-1.35598e-010	
CoarseR198	-1.37224e-010	-1.37224e-010	-1.36951e-010	-1.36951e-010	-1.36478e-010	-1.3646e-010	-1.37128e-010	-1.36655e-010	-1.36655e-010	-1.36638e-010	-1.36363e-010	-1.3618e-010	-1.35709e-010	-1.35693e-010	-1.35889e-010	-1.35418e-010	-1.35418e-010	-1.35418e-010	-1.35418e-010	-1.35418e-010	-1.35418e-010	
CoarseR199	-1.37049e-010	-1.37244e-010	-1.37244e-010	-1.37224e-010	-1.36752e-010	-1.36951e-010	-1.36478e-010	-1.36947e-010	-1.36929e-010	-1.36655e-010	-1.36655e-010	-1.35531e-010	-1.35531e-010	-1.35724e-010	-1.35709e-010	-1.35709e-010	-1.35709e-010	-1.35709e-010	-1.35709e-010	-1.35709e-010	-1.35709e-010	
CoarseR200	-1.37543e-010	-1.37068e-010	-1.37516e-010	-1.37062e-010	-1.37244e-010	-1.36789e-010	-1.3677e-010	-1.36752e-010	-1.36965e-010	-1.36947e-010	-1.36947e-010	-1.36474e-010	-1.35547e-010	-1.35547e-010	-1.35531e-010	-1.35529e-010	-1.35724e-010	-1.35724e-010	-1.35724e-010	-1.3574e-010	-1.36e-010	
MinCout:	-1.34674e-010	CoarseR:	185	CoarseC:	255

	FineC0	FineC10	FineC20	FineC30	FineC40	FineC50	FineC60	FineC70	FineC80	FineC90	FineC100	FineC110	FineC120	FineC130	FineC140	FineC150	FineC160	FineC170	FineC180	FineC190	FineC200	FineC210	FineC220	FineC230	FineC240	FineC250	
FineR0	-1.39743e-010	-1.38951e-010	-1.3795e-010	-1.37846e-010	-1.37762e-010	-1.37002e-010	-1.3673e-010	-1.36907e-010	-1.36612e-010	-1.36798e-010	-1.36048e-010	-1.36041e-010	-1.35573e-010	-1.35936e-010	-1.35936e-010	-1.35928e-010	-1.35637e-010	-1.34981e-010	-1.35629e-010	-1.35337e-010	-1.35337e-010	-1.35337e-010	-1.35337e-010	-1.35044e-010	-1.35044e-010	-1.35509e-010	
FineR10	-1.39298e-010	-1.3876e-010	-1.37477e-010	-1.37378e-010	-1.37291e-010	-1.37008e-010	-1.37377e-010	-1.36626e-010	-1.36616e-010	-1.36321e-010	-1.36046e-010	-1.36231e-010	-1.3575e-010	-1.35935e-010	-1.35935e-010	-1.35638e-010	-1.35638e-010	-1.35638e-010	-1.3534e-010	-1.3534e-010	-1.3534e-010	-1.3534e-010	-1.35052e-010	-1.35052e-010	-1.35042e-010	-1.35042e-010	
FineR20	-1.39862e-010	-1.39057e-010	-1.38041e-010	-1.37489e-010	-1.3739e-010	-1.37107e-010	-1.36999e-010	-1.36726e-010	-1.36715e-010	-1.36422e-010	-1.36148e-010	-1.35863e-010	-1.35853e-010	-1.36047e-010	-1.35557e-010	-1.35751e-010	-1.35741e-010	-1.3526e-010	-1.35454e-010	-1.35454e-010	-1.35454e-010	-1.34963e-010	-1.35157e-010	-1.35157e-010	-1.35619e-010	-1.34675e-010	
FineR30	-1.39696e-010	-1.39338e-010	-1.37872e-010	-1.37772e-010	-1.37218e-010	-1.36935e-010	-1.36632e-010	-1.36815e-010	-1.36543e-010	-1.36249e-010	-1.36433e-010	-1.36139e-010	-1.36139e-010	-1.36323e-010	-1.35844e-010	-1.35374e-010	-1.36028e-010	-1.35548e-010	-1.35743e-010	-1.35743e-010	-1.35732e-010	-1.35252e-010	-1.35446e-010	-1.35446e-010	-1.35446e-010	-1.35446e-010	
FineR40	-1.40201e-010	-1.3917e-010	-1.37885e-010	-1.38061e-010	-1.37035e-010	-1.37206e-010	-1.36655e-010	-1.36827e-010	-1.36553e-010	-1.36066e-010	-1.36249e-010	-1.36433e-010	-1.35955e-010	-1.36139e-010	-1.3566e-010	-1.35844e-010	-1.35844e-010	-1.35559e-010	-1.35559e-010	-1.35548e-010	-1.35743e-010	-1.35263e-010	-1.35263e-010	-1.35263e-010	-1.35263e-010	-1.35263e-010	
FineR50	-1.39998e-010	-1.3917e-010	-1.38173e-010	-1.38074e-010	-1.37975e-010	-1.37218e-010	-1.36935e-010	-1.36643e-010	-1.3637e-010	-1.36553e-010	-1.3626e-010	-1.36249e-010	-1.35955e-010	-1.35955e-010	-1.3615e-010	-1.35855e-010	-1.35855e-010	-1.35844e-010	-1.35559e-010	-1.35559e-010	-1.35559e-010	-1.35559e-010	-1.3508e-010	-1.35263e-010	-1.35263e-010	-1.35263e-010	
FineR60	-1.40465e-010	-1.39637e-010	-1.38639e-010	-1.38074e-010	-1.37337e-010	-1.37231e-010	-1.36946e-010	-1.36643e-010	-1.36827e-010	-1.36553e-010	-1.36066e-010	-1.3626e-010	-1.35966e-010	-1.35955e-010	-1.3615e-010	-1.35671e-010	-1.3566e-010	-1.35855e-010	-1.35855e-010	-1.35365e-010	-1.35559e-010	-1.35559e-010	-1.3508e-010	-1.3508e-010	-1.3508e-010	-1.35274e-010	
FineR70	-1.40465e-010	-1.39186e-010	-1.3799e-010	-1.3789e-010	-1.37791e-010	-1.37035e-010	-1.36946e-010	-1.3713e-010	-1.36827e-010	-1.36553e-010	-1.36077e-010	-1.3626e-010	-1.35772e-010	-1.35966e-010	-1.3615e-010	-1.35671e-010	-1.35671e-010	-1.35855e-010	-1.35855e-010	-1.35376e-010	-1.35376e-010	-1.35559e-010	-1.35559e-010	-1.3508e-010	-1.3508e-010	-1.3508e-010	
FineR80	-1.4028e-010	-1.39471e-010	-1.38441e-010	-1.3789e-010	-1.37791e-010	-1.37035e-010	-1.36946e-010	-1.3713e-010	-1.36838e-010	-1.3637e-010	-1.36077e-010	-1.3626e-010	-1.3626e-010	-1.35966e-010	-1.35955e-010	-1.3615e-010	-1.35671e-010	-1.35671e-010	-1.35855e-010	-1.35376e-010	-1.35376e-010	-1.35376e-010	-1.35559e-010	-1.3508e-010	-1.3508e-010	-1.3508e-010	
FineR90	-1.4028e-010	-1.39471e-010	-1.3799e-010	-1.3789e-010	-1.37791e-010	-1.37035e-010	-1.36763e-010	-1.36935e-010	-1.36187e-010	-1.3637e-010	-1.36077e-010	-1.36066e-010	-1.3626e-010	-1.35966e-010	-1.35966e-010	-1.3615e-010	-1.35671e-010	-1.35671e-010	-1.35855e-010	-1.35376e-010	-1.35376e-010	-1.3557e-010	-1.3557e-010	-1.35091e-010	-1.3508e-010	-1.3508e-010	
FineR100	-1.4028e-010	-1.39921e-010	-1.38003e-010	-1.3789e-010	-1.37804e-010	-1.37035e-010	-1.36763e-010	-1.36935e-010	-1.36643e-010	-1.3637e-010	-1.36077e-010	-1.36066e-010	-1.3626e-010	-1.35966e-010	-1.35966e-010	-1.35955e-010	-1.35671e-010	-1.35671e-010	-1.35671e-010	-1.35376e-010	-1.35376e-010	-1.35376e-010	-1.35376e-010	-1.35091e-010	-1.35091e-010	-1.35091e-010	
FineR110	-1.4028e-010	-1.39921e-010	-1.38003e-010	-1.3789e-010	-1.37804e-010	-1.3752e-010	-1.36763e-010	-1.36935e-010	-1.36643e-010	-1.3637e-010	-1.36553e-010	-1.36077e-010	-1.3626e-010	-1.35772e-010	-1.35966e-010	-1.35038e-010	-1.35671e-010	-1.35671e-010	-1.35671e-010	-1.35376e-010	-1.35376e-010	-1.35376e-010	-1.35376e-010	-1.3557e-010	-1.35091e-010	-1.35091e-010	
FineR120	-1.4028e-010	-1.39471e-010	-1.38003e-010	-1.3789e-010	-1.37804e-010	-1.3752e-010	-1.36763e-010	-1.36935e-010	-1.36187e-010	-1.3637e-010	-1.36077e-010	-1.36077e-010	-1.3626e-010	-1.35966e-010	-1.35966e-010	-1.35966e-010	-1.35671e-010	-1.35671e-010	-1.35671e-010	-1.35855e-010	-1.35376e-010	-1.35376e-010	-1.35376e-010	-1.34897e-010	-1.35091e-010	-1.35091e-010	
FineR130	-1.40746e-010	-1.39921e-010	-1.38003e-010	-1.3789e-010	-1.37608e-010	-1.3752e-010	-1.36763e-010	-1.36935e-010	-1.36643e-010	-1.3637e-010	-1.36553e-010	-1.36077e-010	-1.3626e-010	-1.35772e-010	-1.35966e-010	-1.35966e-010	-1.35671e-010	-1.35671e-010	-1.35671e-010	-1.35376e-010	-1.35376e-010	-1.35376e-010	-1.35376e-010	-1.3557e-010	-1.35091e-010	-1.35091e-010	
FineR140	-1.40746e-010	-1.39471e-010	-1.38003e-010	-1.3789e-010	-1.37608e-010	-1.3752e-010	-1.36763e-010	-1.36935e-010	-1.36187e-010	-1.3637e-010	-1.36553e-010	-1.36077e-010	-1.3626e-010	-1.35783e-010	-1.35966e-010	-1.35966e-010	-1.35671e-010	-1.35671e-010	-1.35671e-010	-1.35387e-010	-1.35376e-010	-1.35376e-010	-1.35376e-010	-1.3557e-010	-1.35091e-010	-1.35091e-010	
FineR150	-1.4028e-010	-1.39471e-010	-1.38003e-010	-1.3789e-010	-1.37608e-010	-1.37047e-010	-1.36763e-010	-1.36935e-010	-1.36187e-010	-1.3637e-010	-1.36553e-010	-1.36077e-010	-1.3626e-010	-1.35783e-010	-1.35966e-010	-1.35966e-010	-1.35671e-010	-1.35671e-010	-1.35671e-010	-1.35387e-010	-1.35376e-010	-1.35376e-010	-1.35376e-010	-1.34897e-010	-1.35091e-010	-1.35091e-010	
FineR160	-1.40746e-010	-1.39471e-010	-1.38003e-010	-1.37904e-010	-1.37608e-010	-1.3752e-010	-1.36763e-010	-1.36946e-010	-1.36643e-010	-1.3637e-010	-1.36553e-010	-1.36077e-010	-1.3626e-010	-1.3626e-010	-1.35966e-010	-1.35966e-010	-1.35671e-010	-1.35671e-010	-1.35671e-010	-1.35866e-010	-1.35376e-010	-1.35376e-010	-1.35376e-010	-1.35376e-010	-1.35091e-010	-1.35091e-010	
FineR170	-1.40746e-010	-1.39471e-010	-1.38003e-010	-1.37904e-010	-1.37608e-010	-1.3752e-010	-1.36763e-010	-1.36935e-010	-1.36187e-010	-1.3637e-010	-1.36553e-010	-1.36077e-010	-1.3626e-010	-1.35783e-010	-1.35966e-010	-1.35966e-010	-1.35671e-010	-1.35671e-010	-1.35671e-010	-1.35855e-010	-1.35376e-010	-1.35376e-010	-1.35376e-010	-1.3557e-010	-1.35091e-010	-1.35091e-010	
FineR180	-1.40746e-010	-1.39471e-010	-1.38003e-010	-1.37904e-010	-1.37608e-010	-1.3752e-010	-1.36763e-010	-1.36935e-010	-1.36187e-010	-1.3637e-010	-1.36077e-010	-1.36077e-010	-1.3626e-010	-1.35783e-010	-1.35966e-010	-1.35966e-010	-1.35671e-010	-1.35671e-010	-1.35671e-010	-1.35866e-010	-1.35376e-010	-1.35376e-010	-1.35376e-010	-1.35376e-010	-1.34897e-010	-1.35091e-010	
FineR190	-1.40746e-010	-1.39471e-010	-1.37807e-010	-1.37904e-010	-1.37608e-010	-1.3752e-010	-1.36763e-010	-1.36935e-010	-1.36187e-010	-1.3637e-010	-1.3637e-010	-1.36077e-010	-1.3626e-010	-1.3626e-010	-1.35966e-010	-1.35966e-010	-1.35478e-010	-1.35671e-010	-1.35671e-010	-1.35671e-010	-1.35376e-010	-1.35376e-010	-1.35376e-010	-1.35376e-010	-1.35091e-010	-1.35091e-010	
FineR200	-1.40766e-010	-1.39471e-010	-1.38003e-010	-1.37904e-010	-1.37154e-010	-1.3752e-010	-1.36763e-010	-1.36935e-010	-1.36662e-010	-1.3637e-010	-1.36553e-010	-1.36077e-010	-1.3626e-010	-1.35783e-010	-1.35966e-010	-1.35966e-010	-1.35038e-010	-1.35671e-010	-1.35671e-010	-1.35671e-010	-1.35376e-010	-1.35376e-010	-1.35376e-010	-1.3557e-010	-1.35091e-010	-1.35091e-010	
FineR210	-1.40746e-010	-1.39471e-010	-1.38003e-010	-1.37904e-010	-1.37608e-010	-1.3752e-010	-1.36763e-010	-1.36935e-010	-1.36187e-010	-1.3637e-010	-1.36553e-010	-1.36077e-010	-1.3626e-010	-1.35772e-010	-1.35966e-010	-1.35966e-010	-1.35671e-010	-1.35671e-010	-1.35671e-010	-1.35866e-010	-1.35376e-010	-1.35376e-010	-1.35376e-010	-1.35376e-010	-1.34897e-010	-1.35091e-010	
FineR220	-1.40746e-010	-1.39471e-010	-1.38003e-010	-1.37904e-010	-1.37608e-010	-1.3752e-010	-1.36763e-010	-1.36935e-010	-1.36187e-010	-1.3637e-010	-1.36553e-010	-1.36077e-010	-1.3626e-010	-1.35783e-010	-1.35966e-010	-1.35966e-010	-1.35478e-010	-1.35671e-010	-1.35671e-010	-1.35193e-010	-1.35376e-010	-1.35376e-010	-1.35376e-010	-1.35091e-010	-1.35091e-010	-1.35091e-010	
FineR230	-1.40766e-010	-1.39471e-010	-1.38003e-010	-1.37707e-010	-1.37154e-010	-1.3752e-010	-1.36763e-010	-1.36935e-010	-1.36187e-010	-1.3637e-010	-1.36564e-010	-1.36077e-010	-1.3626e-010	-1.35772e-010	-1.35966e-010	-1.35507e-010	-1.35671e-010	-1.35671e-010	-1.35671e-010	-1.35855e-010	-1.35376e-010	-1.35376e-010	-1.35376e-010	-1.3557e-010	-1.35091e-010	-1.35091e-010	
FineR240	-1.40317e-010	-1.39471e-010	-1.38003e-010	-1.37707e-010	-1.37608e-010	-1.3752e-010	-1.36763e-010	-1.36935e-010	-1.36187e-010	-1.3637e-010	-1.36553e-010	-1.36077e-010	-1.3626e-010	-1.35772e-010	-1.35966e-010	-1.35966e-010	-1.35671e-010	-1.35671e-010	-1.35671e-010	-1.35387e-010	-1.35376e-010	-1.35376e-010	-1.35376e-010	-1.35091e-010	-1.35091e-010	-1.35091e-010	
FineR250	-1.40299e-010	-1.39471e-010	-1.37807e-010	-1.3789e-010	-1.37154e-010	-1.3752e-010	-1.36763e-010	-1.36935e-010	-1.36187e-010	-1.3637e-010	-1.36359e-010	-1.36077e-010	-1.3626e-010	-1.35783e-010	-1.35966e-010	-1.35966e-010	-1.35478e-010	-1.35671e-010	-1.35671e-010	-1.35193e-010	-1.35376e-010	-1.35376e-010	-1.35376e-010	-1.3557e-010	-1.35091e-010	-1.35091e-010	
MinCout:	-1.34675e-010	FineR:	20	FineC:	250

	FineC240	FineC241	FineC242	FineC243	FineC244	FineC245	FineC246	FineC247	FineC248	FineC249	FineC250	FineC251	FineC252	FineC253	FineC254	FineC255	FineC255	FineC255	FineC255	FineC255	FineC255	
FineR10	-1.35042e-010	-1.35504e-010	-1.35042e-010	-1.35504e-010	-1.35504e-010	-1.35504e-010	-1.35042e-010	-1.35042e-010	-1.35504e-010	-1.35504e-010	-1.35504e-010	-1.35042e-010	-1.35504e-010	-1.35504e-010	-1.35504e-010	-1.35042e-010	-1.35504e-010	-1.35504e-010	-1.35504e-010	-1.35021e-010	-1.35504e-010	
FineR11	-1.35515e-010	-1.3532e-010	-1.35515e-010	-1.35515e-010	-1.35515e-010	-1.35515e-010	-1.35515e-010	-1.35515e-010	-1.35515e-010	-1.35515e-010	-1.35515e-010	-1.35515e-010	-1.35515e-010	-1.35515e-010	-1.35032e-010	-1.35515e-010	-1.35515e-010	-1.35032e-010	-1.35515e-010	-1.35032e-010	-1.35032e-010	
FineR12	-1.34203e-010	-1.3532e-010	-1.35515e-010	-1.35515e-010	-1.3532e-010	-1.3532e-010	-1.3532e-010	-1.35515e-010	-1.3532e-010	-1.35515e-010	-1.35515e-010	-1.3532e-010	-1.35032e-010	-1.35032e-010	-1.35515e-010	-1.35032e-010	-1.35032e-010	-1.35032e-010	-1.3532e-010	-1.3532e-010	-1.35515e-010	
FineR13	-1.3533e-010	-1.3533e-010	-1.3533e-010	-1.3533e-010	-1.3533e-010	-1.3533e-010	-1.34675e-010	-1.3533e-010	-1.3533e-010	-1.3533e-010	-1.3533e-010	-1.3533e-010	-1.3533e-010	-1.34848e-010	-1.34848e-010	-1.3533e-010	-1.34848e-010	-1.34848e-010	-1.3533e-010	-1.34848e-010	-1.34848e-010	
FineR14	-1.3533e-010	-1.3533e-010	-1.3533e-010	-1.3533e-010	-1.3533e-010	-1.3533e-010	-1.3533e-010	-1.3533e-010	-1.3533e-010	-1.3533e-010	-1.34848e-010	-1.34848e-010	-1.34848e-010	-1.3533e-010	-1.34848e-010	-1.34848e-010	-1.34848e-010	-1.34848e-010	-1.34848e-010	-1.34848e-010	-1.34848e-010	
FineR15	-1.35341e-010	-1.35341e-010	-1.35341e-010	-1.3533e-010	-1.3533e-010	-1.3533e-010	-1.35341e-010	-1.3533e-010	-1.3533e-010	-1.34848e-010	-1.3533e-010	-1.3533e-010	-1.34848e-010	-1.34848e-010	-1.34848e-010	-1.34848e-010	-1.34675e-010	-1.34848e-010	-1.34848e-010	-1.34848e-010	-1.34848e-010	
FineR16	-1.35341e-010	-1.35341e-010	-1.35341e-010	-1.35341e-010	-1.35341e-010	-1.35341e-010	-1.35341e-010	-1.35341e-010	-1.34859e-010	-1.35341e-010	-1.35341e-010	-1.34859e-010	-1.34859e-010	-1.35341e-010	-1.35341e-010	-1.34859e-010	-1.34859e-010	-1.34859e-010	-1.34859e-010	-1.34859e-010	-1.34665e-010	
FineR17	-1.35146e-010	-1.35341e-010	-1.35146e-010	-1.35341e-010	-1.35146e-010	-1.35146e-010	-1.35804e-010	-1.35146e-010	-1.34859e-010	-1.35146e-010	-1.35608e-010	-1.34859e-010	-1.34859e-010	-1.34859e-010	-1.34859e-010	-1.34859e-010	-1.34203e-010	-1.34859e-010	-1.34859e-010	-1.34859e-010	-1.35341e-010	
FineR18	-1.35157e-010	-1.35146e-010	-1.35146e-010	-1.35146e-010	-1.35146e-010	-1.35146e-010	-1.35126e-010	-1.35146e-010	-1.35138e-010	-1.34665e-010	-1.35146e-010	-1.35126e-010	-1.35146e-010	-1.34859e-010	-1.34665e-010	-1.35321e-010	-1.35126e-010	-1.34859e-010	-1.35126e-010	-1.35126e-010	-1.35126e-010	
FineR19	-1.35157e-010	-1.35619e-010	-1.35619e-010	-1.35157e-010	-1.35157e-010	-1.35157e-010	-1.35157e-010	-1.35138e-010	-1.35138e-010	-1.34675e-010	-1.34675e-010	-1.35138e-010	-1.35138e-010	-1.35138e-010	-1.34675e-010	-1.35138e-010	-1.35138e-010	-1.35138e-010	-1.35138e-010	-1.35138e-010	-1.34675e-010	
FineR20	-1.35157e-010	-1.35157e-010	-1.35619e-010	-1.35619e-010	-1.35619e-010	-1.35138e-010	-1.35138e-010	-1.35619e-010	-1.35619e-010	-1.35138e-010	-1.34675e-010	-1.35138e-010	-1.34675e-010	-1.35138e-010	-1.35138e-010	-1.35138e-010	-1.35138e-010	-1.35138e-010	-1.35138e-010	-1.35138e-010	-1.35138e-010	
FineR21	-1.35619e-010	-1.35619e-010	-1.35619e-010	-1.35619e-010	-1.35619e-010	-1.35138e-010	-1.35619e-010	-1.35138e-010	-1.35138e-010	-1.35619e-010	-1.35138e-010	-1.35138e-010	-1.35138e-010	-1.35138e-010	-1.35138e-010	-1.35138e-010	-1.35138e-010	-1.35138e-010	-1.35138e-010	-1.35138e-010	-1.35138e-010	
FineR22	-1.35619e-010	-1.35619e-010	-1.35619e-010	-1.35424e-010	-1.35619e-010	-1.35619e-010	-1.35619e-010	-1.35138e-010	-1.35619e-010	-1.35138e-010	-1.35138e-010	-1.35138e-010	-1.35138e-010	-1.35138e-010	-1.35138e-010	-1.35138e-010	-1.35138e-010	-1.35138e-010	-1.35138e-010	-1.35138e-010	-1.35138e-010	
FineR23	-1.3563e-010	-1.35435e-010	-1.3563e-010	-1.34954e-010	-1.3563e-010	-1.35619e-010	-1.3563e-010	-1.35435e-010	-1.35619e-010	-1.35138e-010	-1.35138e-010	-1.35149e-010	-1.35138e-010	-1.35138e-010	-1.35149e-010	-1.35149e-010	-1.35138e-010	-1.35149e-010	-1.35138e-010	-1.35138e-010	-1.35138e-010	
FineR24	-1.35435e-010	-1.35435e-010	-1.34954e-010	-1.3563e-010	-1.35435e-010	-1.3563e-010	-1.35149e-010	-1.34954e-010	-1.34954e-010	-1.34954e-010	-1.34954e-010	-1.35149e-010	-1.35149e-010	-1.35149e-010	-1.35149e-010	-1.34954e-010	-1.35149e-010	-1.35149e-010	-1.35149e-010	-1.35149e-010	-1.35149e-010	
FineR25	-1.35435e-010	-1.35435e-010	-1.35435e-010	-1.35435e-010	-1.35435e-010	-1.3563e-010	-1.35435e-010	-1.34954e-010	-1.3563e-010	-1.34954e-010	-1.34954e-010	-1.34954e-010	-1.34954e-010	-1.34954e-010	-1.34954e-010	-1.34954e-010	-1.34954e-010	-1.34954e-010	-1.35149e-010	-1.34954e-010	-1.34954e-010	
FineR26	-1.35435e-010	-1.35435e-010	-1.35435e-010	-1.34954e-010	-1.35435e-010	-1.35435e-010	-1.34954e-010	-1.35435e-010	-1.34954e-010	-1.34954e-010	-1.34954e-010	-1.34954e-010	-1.34954e-010	-1.34954e-010	-1.34954e-010	-1.34954e-010	-1.34954e-010	-1.34954e-010	-1.34954e-010	-1.35435e-010	-1.34954e-010	
FineR27	-1.35435e-010	-1.35435e-010	-1.35435e-010	-1.35435e-010	-1.35435e-010	-1.34954e-010	-1.35435e-010	-1.35435e-010	-1.35435e-010	-1.35435e-010	-1.35435e-010	-1.34954e-010	-1.34954e-010	-1.34954e-010	-1.34954e-010	-1.34954e-010	-1.34954e-010	-1.34954e-010	-1.34954e-010	-1.34954e-010	-1.34954e-010	
FineR28	-1.35435e-010	-1.35435e-010	-1.35435e-010	-1.35435e-010	-1.35435e-010	-1.35435e-010	-1.35435e-010	-1.34954e-010	-1.34954e-010	-1.35435e-010	-1.34954e-010	-1.34954e-010	-1.34954e-010	-1.34954e-010	-1.34954e-010	-1.34954e-010	-1.34954e-010	-1.34954e-010	-1.34954e-010	-1.34954e-010	-1.34954e-010	
FineR29	-1.35446e-010	-1.35446e-010	-1.35446e-010	-1.35446e-010	-1.35446e-010	-1.35446e-010	-1.35446e-010	-1.34954e-010	-1.34965e-010	-1.34954e-010	-1.35435e-010	-1.34954e-010	-1.34965e-010	-1.34954e-010	-1.34965e-010	-1.34954e-010	-1.34954e-010	-1.34954e-010	-1.34954e-010	-1.34954e-010	-1.34954e-010	
FineR30	-1.35446e-010	-1.35446e-010	-1.35446e-010	-1.35446e-010	-1.35446e-010	-1.35446e-010	-1.35446e-010	-1.35446e-010	-1.34965e-010	-1.35446e-010	-1.34965e-010	-1.34965e-010	-1.34965e-010	-1.34965e-010	-1.34965e-010	-1.34965e-010	-1.34965e-010	-1.34965e-010	-1.34965e-010	-1.34965e-010	-1.34965e-010	
MinCout:	-1.34203e-010	FineR:	17	FineC:	255

