	CoarseC0	CoarseC10	CoarseC20	CoarseC30	CoarseC40	CoarseC50	CoarseC60	CoarseC70	CoarseC80	CoarseC90	CoarseC100	CoarseC110	CoarseC120	CoarseC130	CoarseC140	CoarseC150	CoarseC160	CoarseC170	CoarseC180	CoarseC190	CoarseC200	CoarseC210	CoarseC220	CoarseC230	CoarseC240	CoarseC250	
CoarseR0	-3.09676e-010	-2.94485e-010	-2.84201e-010	-2.76431e-010	-2.7027e-010	-2.65952e-010	-2.62794e-010	-2.60426e-010	-2.58513e-010	-2.56801e-010	-2.55331e-010	-2.5508e-010	-2.54653e-010	-2.54238e-010	-2.54451e-010	-2.55224e-010	-2.55905e-010	-2.56198e-010	-2.56145e-010	-2.55765e-010	-2.55091e-010	-2.54072e-010	-2.52799e-010	-2.51237e-010	-2.4946e-010	-2.47577e-010	
CoarseR10	-2.33513e-010	-2.21002e-010	-2.12712e-010	-2.06497e-010	-2.01349e-010	-1.97946e-010	-1.96092e-010	-1.95046e-010	-1.94616e-010	-1.94273e-010	-1.94552e-010	-1.95814e-010	-1.97855e-010	-1.99673e-010	-2.01443e-010	-2.02949e-010	-2.04135e-010	-2.05018e-010	-2.05635e-010	-2.05981e-010	-2.06036e-010	-2.05777e-010	-2.05272e-010	-2.04653e-010	-2.03895e-010	-2.03059e-010	
CoarseR20	-1.74527e-010	-1.63481e-010	-1.56324e-010	-1.51897e-010	-1.49025e-010	-1.46563e-010	-1.45487e-010	-1.45193e-010	-1.45824e-010	-1.47714e-010	-1.50144e-010	-1.52895e-010	-1.54991e-010	-1.57136e-010	-1.59317e-010	-1.61365e-010	-1.63149e-010	-1.64695e-010	-1.66117e-010	-1.6724e-010	-1.68256e-010	-1.69228e-010	-1.70507e-010	-1.71801e-010	-1.72886e-010	-1.73534e-010	
CoarseR30	4.56738e-010	-1.17762e-010	-1.129e-010	-1.09632e-010	-1.08291e-010	-1.07131e-010	-1.05688e-010	-1.07365e-010	-1.09506e-010	-1.11992e-010	-1.14627e-010	-1.17281e-010	-1.20109e-010	-1.22871e-010	-1.25531e-010	-1.28141e-010	-1.30718e-010	-1.33221e-010	-1.35601e-010	-1.3841e-010	-1.41563e-010	-1.44607e-010	-1.46439e-010	-1.49103e-010	-1.50215e-010	-1.50809e-010	
CoarseR40	4.16397e-010	4.53007e-010	-7.92662e-011	-7.67957e-011	-7.54293e-011	-7.58512e-011	-7.73829e-011	-7.93797e-011	-8.02453e-011	-8.28994e-011	-8.58096e-011	-8.8774e-011	-9.1914e-011	-9.53881e-011	-9.85014e-011	-1.01712e-010	-1.05273e-010	-1.09393e-010	-1.14192e-010	-1.18756e-010	-1.2248e-010	-1.25429e-010	-1.27914e-010	-1.29962e-010	-1.31499e-010	-1.32671e-010	
CoarseR50	3.91958e-010	3.98437e-010	4.31113e-010	-5.11854e-011	-5.13129e-011	-5.23969e-011	-5.38286e-011	-5.56528e-011	-5.85193e-011	-6.07993e-011	-6.22031e-011	-6.54887e-011	-6.90202e-011	-7.27215e-011	-7.67566e-011	-8.12311e-011	-8.70683e-011	-9.32425e-011	-9.83823e-011	-1.03038e-010	-1.06776e-010	-1.09888e-010	-1.12559e-010	-1.14669e-010	-1.16364e-010	-1.17689e-010	
CoarseR60	3.79301e-010	3.96427e-010	4.16534e-010	4.39258e-010	-3.21468e-011	-3.30398e-011	-3.44614e-011	-3.63319e-011	-3.87472e-011	-4.14754e-011	-4.46861e-011	-4.82961e-011	-5.12426e-011	-5.49649e-011	-6.02152e-011	-6.68733e-011	-7.38631e-011	-7.9937e-011	-8.52322e-011	-8.97196e-011	-9.36315e-011	-9.68417e-011	-9.96019e-011	-1.01409e-010	-1.04594e-010	-1.05539e-010	
CoarseR70	3.77635e-010	3.95029e-010	4.33968e-010	4.70692e-010	-1.7271e-011	-1.73427e-011	-1.87119e-011	-2.0206e-011	-2.2751e-011	-2.5767e-011	-2.90068e-011	-3.29226e-011	-3.7351e-011	-4.22104e-011	-4.84287e-011	-5.60824e-011	-6.27915e-011	-6.88192e-011	-7.40108e-011	-7.84884e-011	-8.2395e-011	-8.5762e-011	-8.85668e-011	-9.09299e-011	-9.28765e-011	-9.45422e-011	
CoarseR80	3.75653e-010	4.05071e-010	4.54992e-010	4.77674e-010	5.08598e-010	-4.77606e-012	-5.61877e-012	-7.45707e-012	-9.72775e-012	-1.24348e-011	-1.59944e-011	-2.00969e-011	-2.52818e-011	-3.22379e-011	-4.04365e-011	-4.65546e-011	-5.33685e-011	-6.00008e-011	-6.4213e-011	-6.87107e-011	-7.25442e-011	-7.59598e-011	-7.88519e-011	-8.12961e-011	-8.34259e-011	-8.51614e-011	
CoarseR90	4.15866e-010	4.21926e-010	4.62227e-010	4.82376e-010	5.30304e-010	5.17506e-012	5.02381e-012	3.54044e-012	1.18121e-012	-1.64546e-012	-5.16471e-012	-9.25405e-012	-1.56377e-011	-2.35906e-011	-3.17726e-011	-3.9408e-011	-4.45714e-011	-5.05171e-011	-5.56606e-011	-5.96629e-011	-6.49083e-011	-6.75449e-011	-7.04453e-011	-7.29816e-011	-7.50931e-011	-7.69308e-011	
CoarseR100	3.86099e-010	4.19528e-010	4.45283e-010	4.78306e-010	4.86516e-010	4.84911e-010	1.37645e-011	1.24549e-011	1.03022e-011	7.43966e-012	3.88055e-012	-8.10323e-013	-8.01341e-012	-1.63402e-011	-2.43027e-011	-3.16865e-011	-3.82782e-011	-4.28508e-011	-4.80563e-011	-5.2644e-011	-5.66211e-011	-6.01332e-011	-6.31172e-011	-6.54475e-011	-6.88941e-011	-7.00678e-011	
CoarseR110	4.13385e-010	4.09744e-010	4.38275e-010	4.59768e-010	4.90364e-010	5.24057e-010	2.10974e-011	1.94505e-011	1.77002e-011	1.48654e-011	1.12765e-011	6.09952e-012	-1.21172e-012	-9.72212e-012	-1.83962e-011	-2.48625e-011	-3.1395e-011	-3.6173e-011	-4.1327e-011	-4.59863e-011	-4.99091e-011	-5.3564e-011	-5.67223e-011	-5.93895e-011	-6.16781e-011	-6.36819e-011	
CoarseR120	3.99518e-010	4.04689e-010	4.2805e-010	4.93253e-010	4.94437e-010	5.06862e-010	2.60817e-011	2.52366e-011	2.34486e-011	2.05255e-011	1.74632e-011	1.21128e-011	4.52775e-012	-3.85591e-012	-1.17181e-011	-1.9974e-011	-2.53991e-011	-2.9995e-011	-3.54339e-011	-4.00818e-011	-4.41606e-011	-4.77819e-011	-5.09664e-011	-5.37504e-011	-5.61555e-011	-5.82158e-011	
CoarseR130	3.89646e-010	4.12207e-010	4.25993e-010	5.00348e-010	5.32124e-010	6.06377e-010	3.1138e-011	2.99498e-011	2.83413e-011	2.59888e-011	2.22706e-011	1.72477e-011	9.61148e-012	1.34061e-012	-6.48446e-012	-1.3613e-011	-2.09257e-011	-2.48024e-011	-3.01095e-011	-3.4941e-011	-3.9044e-011	-4.27335e-011	-4.60802e-011	-4.88953e-011	-5.14474e-011	-5.3543e-011	
CoarseR140	3.71564e-010	4.30543e-010	4.59624e-010	4.8402e-010	5.39045e-010	5.72439e-010	3.39932e-011	3.35207e-011	3.21508e-011	2.98104e-011	2.69281e-011	2.14828e-011	1.41464e-011	5.89138e-012	-1.79843e-012	-8.99207e-012	-1.54959e-011	-2.10393e-011	-2.55513e-011	-3.03693e-011	-3.45349e-011	-3.84421e-011	-4.17658e-011	-4.46683e-011	-4.72866e-011	-4.94604e-011	
CoarseR150	3.64484e-010	4.20311e-010	4.65035e-010	5.04369e-010	5.11841e-010	5.4209e-010	3.63104e-011	3.61603e-011	3.50433e-011	3.30057e-011	2.9999e-011	2.47984e-011	1.80505e-011	9.93496e-012	2.23725e-012	-4.93098e-012	-1.14403e-011	-1.63464e-011	-2.26921e-011	-2.64153e-011	-3.08081e-011	-3.46571e-011	-3.81367e-011	-4.11138e-011	-4.37872e-011	-4.60636e-011	
CoarseR160	3.70643e-010	4.156e-010	4.48131e-010	4.62562e-010	4.91742e-010	5.07335e-010	3.81112e-011	3.80958e-011	3.72116e-011	3.55181e-011	3.26306e-011	2.82661e-011	2.14073e-011	1.34969e-011	5.78686e-012	-1.54113e-012	-8.01944e-012	-1.2945e-011	-1.79017e-011	-2.37486e-011	-2.75362e-011	-3.15424e-011	-3.49654e-011	-3.80972e-011	-4.08631e-011	-4.32364e-011	
CoarseR170	3.73358e-010	4.41754e-010	4.56457e-010	4.75409e-010	4.98409e-010	5.04925e-010	3.91683e-011	3.93037e-011	3.86817e-011	3.70903e-011	3.46141e-011	3.0815e-011	2.42604e-011	1.65376e-011	8.78984e-012	1.47093e-012	-4.30054e-012	-1.01254e-011	-1.56827e-011	-2.0957e-011	-2.49768e-011	-2.89926e-011	-3.24667e-011	-3.56443e-011	-3.83814e-011	-4.09195e-011	
CoarseR180	3.86503e-010	4.12507e-010	4.49595e-010	4.84268e-010	4.88303e-010	3.80747e-011	3.92428e-011	3.92176e-011	3.9529e-011	3.81391e-011	3.58645e-011	3.22902e-011	2.64226e-011	1.8995e-011	1.13044e-011	4.00149e-012	-1.63536e-012	-7.69846e-012	-1.33445e-011	-1.77736e-011	-2.3327e-011	-2.6865e-011	-3.05314e-011	-3.37344e-011	-3.65528e-011	-3.90635e-011	
CoarseR190	3.56545e-010	4.34829e-010	4.4641e-010	4.55123e-010	4.97745e-010	5.2136e-010	3.97459e-011	4.01832e-011	3.99334e-011	3.86875e-011	3.66526e-011	3.34229e-011	2.81459e-011	2.11125e-011	1.32662e-011	6.00129e-012	3.93375e-013	-5.88133e-012	-1.14979e-011	-1.64239e-011	-2.2141e-011	-2.52871e-011	-2.89794e-011	-3.2246e-011	-3.50985e-011	-3.76355e-011	
CoarseR200	3.65546e-010	4.45088e-010	4.28798e-010	4.67395e-010	4.9736e-010	3.76833e-011	3.90004e-011	3.98596e-011	3.98657e-011	3.88471e-011	3.70961e-011	3.41584e-011	2.9182e-011	2.27494e-011	1.5013e-011	7.55412e-012	1.92545e-012	-4.37459e-012	-1.01517e-011	-1.5282e-011	-2.09071e-011	-2.41113e-011	-2.77474e-011	-3.11316e-011	-3.40951e-011	-3.66626e-011	
CoarseR210	3.59758e-010	4.08796e-010	4.25382e-010	4.63031e-010	4.87589e-010	3.70578e-011	3.86578e-011	3.96615e-011	3.94405e-011	3.87183e-011	3.70461e-011	3.42188e-011	3.00079e-011	2.38697e-011	1.63109e-011	8.72677e-012	3.03265e-012	-3.32822e-012	-9.10261e-012	-1.43498e-011	-1.99898e-011	-2.325e-011	-2.69297e-011	-3.03568e-011	-3.33904e-011	-3.60489e-011	
CoarseR220	3.81666e-010	3.91427e-010	4.47889e-010	4.65036e-010	4.78153e-010	3.61163e-011	3.82014e-011	3.90323e-011	3.89988e-011	3.82112e-011	3.66289e-011	3.41189e-011	3.03853e-011	2.4536e-011	1.71386e-011	9.65688e-012	3.80068e-012	-2.65728e-012	-8.43163e-012	-1.36692e-011	-1.94863e-011	-2.27703e-011	-2.65847e-011	-2.99873e-011	-3.29595e-011	-3.56752e-011	
CoarseR230	3.72396e-010	3.84673e-010	4.06517e-010	4.89134e-010	4.62944e-010	4.84366e-010	3.73408e-011	3.8138e-011	3.82326e-011	3.76312e-011	3.61659e-011	3.3992e-011	3.04914e-011	2.49532e-011	1.78786e-011	1.05792e-011	4.29959e-012	-2.1397e-012	-8.05258e-012	-1.31872e-011	-1.91779e-011	-2.25172e-011	-2.63477e-011	-2.98152e-011	-3.28845e-011	-3.55127e-011	
CoarseR240	3.73854e-010	4.26595e-010	4.29595e-010	4.64943e-010	4.66825e-010	4.85954e-010	3.62784e-011	3.72694e-011	3.73965e-011	3.67776e-011	3.52816e-011	3.35594e-011	3.00709e-011	2.50154e-011	1.81773e-011	1.06875e-011	4.57675e-012	-1.9619e-012	-7.93194e-012	-1.27e-011	-1.87359e-011	-2.24476e-011	-2.63993e-011	-2.9858e-011	-3.3014e-011	-3.56739e-011	
CoarseR250	3.69797e-010	3.90647e-010	4.41102e-010	4.74067e-010	4.96403e-010	5.09021e-010	3.54556e-011	3.62808e-011	3.64787e-011	3.59341e-011	3.46711e-011	3.2471e-011	2.95882e-011	2.49605e-011	1.81302e-011	1.1021e-011	4.61877e-012	-2.02739e-012	-7.9523e-012	-1.28335e-011	-1.84659e-011	-2.2636e-011	-2.66224e-011	-3.00941e-011	-3.32484e-011	-3.59222e-011	
MinCout:	3.93375e-013	CoarseR:	190	CoarseC:	160

	CoarseC40	CoarseC41	CoarseC42	CoarseC43	CoarseC44	CoarseC45	CoarseC46	CoarseC47	CoarseC48	CoarseC49	CoarseC50	CoarseC51	CoarseC52	CoarseC53	CoarseC54	CoarseC55	CoarseC56	CoarseC57	CoarseC58	CoarseC59	CoarseC60	
CoarseR70	-1.64119e-011	-1.63056e-011	-1.63464e-011	-1.63915e-011	-1.64845e-011	-1.64928e-011	-1.64994e-011	-1.63693e-011	-1.67352e-011	-1.6064e-011	-1.6687e-011	-1.60467e-011	-1.68437e-011	-1.62263e-011	-1.63338e-011	-1.64611e-011	-1.65606e-011	-1.66957e-011	-1.68651e-011	-1.70393e-011	-1.72029e-011	
CoarseR71	-1.51551e-011	-1.54952e-011	-1.50367e-011	-1.50153e-011	-1.51112e-011	-1.50937e-011	-1.51861e-011	-1.52449e-011	-1.47014e-011	-1.5495e-011	-1.44749e-011	-1.55695e-011	-1.46111e-011	-1.58377e-011	-1.48722e-011	-1.50215e-011	-1.51678e-011	-1.5307e-011	-1.53956e-011	-1.55329e-011	-1.571e-011	
CoarseR72	-1.34524e-011	-1.37577e-011	-1.41853e-011	-1.38879e-011	-1.37846e-011	-1.37299e-011	-1.38264e-011	-1.36332e-011	-1.39349e-011	-1.32626e-011	-1.40066e-011	-1.33004e-011	-1.41914e-011	-1.33656e-011	-1.35221e-011	-1.36669e-011	-1.38051e-011	-1.39502e-011	-1.40613e-011	-1.41847e-011	-1.43228e-011	
CoarseR73	-1.23296e-011	-1.21562e-011	-1.22803e-011	-1.26966e-011	-1.2884e-011	-1.24533e-011	-1.24206e-011	-1.23862e-011	-1.21781e-011	-1.22578e-011	-1.2265e-011	-1.23872e-011	-1.23032e-011	-1.20971e-011	-1.21975e-011	-1.23547e-011	-1.24479e-011	-1.25959e-011	-1.27027e-011	-1.27969e-011	-1.29074e-011	
CoarseR74	-1.09733e-011	-1.11123e-011	-1.11066e-011	-1.08304e-011	-1.1209e-011	-1.16219e-011	-1.1306e-011	-1.08543e-011	-1.08776e-011	-1.0901e-011	-1.07771e-011	-1.09966e-011	-1.08743e-011	-1.07468e-011	-1.07773e-011	-1.09383e-011	-1.10436e-011	-1.11964e-011	-1.133e-011	-1.14551e-011	-1.16005e-011	
CoarseR75	-9.55967e-012	-1.00136e-011	-9.83618e-012	-9.91257e-012	-9.70962e-012	-9.8215e-012	-1.01239e-011	-1.01465e-011	-9.61127e-012	-9.41243e-012	-9.59097e-012	-9.52572e-012	-9.62286e-012	-9.39931e-012	-1.05519e-011	-9.58927e-012	-9.70814e-012	-9.78214e-012	-9.93716e-012	-1.01312e-011	-1.02803e-011	
CoarseR76	4.80237e-010	-8.39343e-012	-8.70532e-012	-8.62149e-012	-8.64802e-012	-8.53668e-012	-8.39335e-012	-8.46177e-012	-8.85033e-012	-8.43077e-012	-8.27451e-012	-8.33855e-012	-8.23031e-012	-8.15357e-012	-8.27334e-012	-8.35945e-012	-8.46391e-012	-8.59161e-012	-8.7501e-012	-8.85525e-012	-9.04061e-012	
CoarseR77	5.0566e-010	5.10434e-010	-7.16642e-012	-7.67411e-012	-7.28303e-012	-7.23824e-012	-7.31343e-012	-6.87232e-012	-7.46246e-012	-8.08184e-012	-7.08386e-012	-7.70195e-012	-6.73425e-012	-7.89329e-012	-6.99135e-012	-7.08896e-012	-7.20634e-012	-7.34639e-012	-7.45799e-012	-7.61808e-012	-7.77417e-012	
CoarseR78	4.85447e-010	4.87389e-010	5.01963e-010	-6.08379e-012	-6.14866e-012	-6.05664e-012	-6.05408e-012	-6.09844e-012	-6.21084e-012	-6.23913e-012	-5.66604e-012	-7.11532e-012	-5.59733e-012	-6.67903e-012	-5.78046e-012	-5.89661e-012	-6.02644e-012	-6.08716e-012	-6.25166e-012	-6.41514e-012	-6.53367e-012	
CoarseR79	4.92282e-010	5.01401e-010	5.11578e-010	-4.89079e-012	-5.01126e-012	-4.73833e-012	-4.77049e-012	-4.65447e-012	-4.92377e-012	-4.44081e-012	-5.04942e-012	-4.36864e-012	-5.97653e-012	-4.71343e-012	-4.51524e-012	-4.63414e-012	-4.76755e-012	-4.93893e-012	-4.99334e-012	-5.11752e-012	-5.28168e-012	
CoarseR80	5.00212e-010	5.13564e-010	5.05293e-010	4.98099e-010	-3.78577e-012	-3.83578e-012	-2.8771e-012	-3.9658e-012	-3.0668e-012	-4.10161e-012	-3.20601e-012	-3.92685e-012	-3.10268e-012	-4.68126e-012	-3.88025e-012	-3.49078e-012	-3.59524e-012	-3.72984e-012	-3.90169e-012	-3.98056e-012	-4.11446e-012	
CoarseR81	5.14331e-010	4.92051e-010	5.1301e-010	5.0956e-010	-1.58639e-012	-2.71237e-012	-1.77917e-012	-2.83036e-012	-1.83353e-012	-2.9616e-012	-1.99914e-012	-3.20537e-012	-1.94419e-012	-1.89623e-012	-2.47375e-012	-2.95584e-012	-2.62539e-012	-2.58886e-012	-2.68251e-012	-2.81428e-012	-2.97615e-012	
CoarseR82	5.18213e-010	5.24026e-010	4.96634e-010	5.21145e-010	-5.0839e-013	-5.83818e-013	-1.6913e-012	-6.84274e-013	-1.7572e-012	-7.9053e-013	-1.89231e-012	-9.98006e-013	-2.14611e-012	-1.03569e-012	-8.38075e-013	-1.24233e-012	-1.78355e-012	-1.80038e-012	-1.59209e-012	-1.67703e-012	-1.80174e-012	
CoarseR83	5.33164e-010	4.9749e-010	5.1655e-010	5.21073e-010	5.10946e-010	5.67512e-013	-5.85567e-013	3.76334e-013	-7.00532e-013	2.53074e-013	2.20231e-013	1.94732e-013	3.50514e-014	-6.22385e-015	-1.17966e-012	8.76383e-014	-1.10215e-013	-7.02735e-013	-1.01696e-012	-6.35914e-013	-6.80127e-013	
CoarseR84	5.04605e-010	4.96128e-010	5.26998e-010	5.17112e-010	5.20118e-010	5.53637e-010	5.64986e-013	1.46303e-012	1.43204e-012	2.89796e-013	1.30548e-012	1.97842e-013	1.20494e-012	4.03108e-014	1.04415e-012	8.48671e-013	1.00487e-012	9.38781e-013	4.37729e-013	-1.10434e-013	1.98141e-013	
CoarseR85	5.09443e-010	5.34361e-010	4.99278e-010	5.39106e-010	5.41835e-010	5.50917e-010	1.54497e-012	2.58203e-012	1.40472e-012	2.44354e-012	2.35285e-012	2.28788e-012	2.24514e-012	2.19635e-012	2.16021e-012	2.04392e-012	1.80672e-012	1.82082e-012	1.92841e-012	1.47715e-012	8.96189e-013	
CoarseR86	5.41853e-010	5.09733e-010	5.52461e-010	5.42933e-010	5.2164e-010	5.33554e-010	3.58135e-012	2.46051e-012	3.47e-012	2.39359e-012	3.31076e-012	3.34405e-012	2.12882e-012	3.1441e-012	3.0217e-012	3.03599e-012	2.91022e-012	2.70569e-012	2.65448e-012	2.88646e-012	2.47522e-012	
CoarseR87	5.32437e-010	5.23853e-010	5.22631e-010	5.31797e-010	5.45252e-010	5.14106e-010	5.45881e-010	4.54123e-012	3.51238e-012	4.48125e-012	4.37409e-012	4.30161e-012	4.23319e-012	3.07636e-012	4.02008e-012	3.9894e-012	3.99409e-012	3.86866e-012	3.62184e-012	3.51214e-012	3.71089e-012	
CoarseR88	5.49269e-010	5.21959e-010	5.52839e-010	5.25593e-010	5.30437e-010	5.25742e-010	5.26835e-010	5.5358e-012	5.51101e-012	4.8183e-012	5.34801e-012	4.21611e-012	5.25103e-012	5.18246e-012	5.10447e-012	4.98786e-012	4.89673e-012	4.8927e-012	4.73433e-012	4.57015e-012	4.39455e-012	
CoarseR89	5.02234e-010	5.2334e-010	5.30464e-010	5.176e-010	5.50313e-010	5.09275e-010	5.37946e-010	6.5021e-012	6.45324e-012	5.61467e-012	6.39748e-012	5.22976e-012	6.22032e-012	6.15791e-012	6.10863e-012	5.90561e-012	5.85314e-012	5.79451e-012	5.80829e-012	5.64092e-012	5.44397e-012	
CoarseR90	5.02833e-010	5.18166e-010	5.33125e-010	5.13812e-010	5.01914e-010	5.11284e-010	5.37782e-010	5.66396e-010	7.34589e-012	6.23393e-012	7.33505e-012	7.16872e-012	6.07375e-012	7.10732e-012	7.06465e-012	6.9414e-012	6.85382e-012	6.70846e-012	6.71059e-012	6.63208e-012	6.51506e-012	
MinCout:	-6.22385e-015	CoarseR:	83	CoarseC:	53

	FineC0	FineC10	FineC20	FineC30	FineC40	FineC50	FineC60	FineC70	FineC80	FineC90	FineC100	FineC110	FineC120	FineC130	FineC140	FineC150	FineC160	FineC170	FineC180	FineC190	FineC200	FineC210	FineC220	FineC230	FineC240	FineC250	
FineR0	4.79264e-010	4.96404e-010	4.97127e-010	4.65258e-010	4.80238e-010	-1.25997e-011	-1.16565e-011	-1.1261e-011	-1.07135e-011	-1.00639e-011	-9.63198e-012	-9.27204e-012	-8.91379e-012	-8.67957e-012	-8.46746e-012	-8.30627e-012	-8.08575e-012	-7.92458e-012	-7.75416e-012	-7.68536e-012	-7.48726e-012	-7.37698e-012	-7.36407e-012	-7.36877e-012	-7.23852e-012	-7.28503e-012	
FineR10	5.12401e-010	5.06904e-010	5.18994e-010	4.94604e-010	5.26974e-010	-6.88501e-012	-6.59826e-012	-5.52696e-012	-5.04714e-012	-4.59918e-012	-4.3055e-012	-3.93146e-012	-3.73285e-012	-3.41931e-012	-3.23377e-012	-3.02558e-012	-2.86807e-012	-2.77524e-012	-2.59032e-012	-2.40543e-012	-2.37252e-012	-2.32129e-012	-2.13629e-012	-2.05242e-012	-2.01019e-012	-1.87549e-012	
FineR20	5.09891e-010	5.10801e-010	5.3098e-010	5.07867e-010	5.11021e-010	-4.42796e-012	-4.71834e-012	-4.08809e-012	-3.50593e-012	-3.05665e-012	-2.65946e-012	-2.39537e-012	-2.20432e-012	-1.90203e-012	-1.69196e-012	-1.60648e-012	-1.42858e-012	-1.21835e-012	-1.11465e-012	-9.78602e-013	-7.59118e-013	-8.40188e-013	-6.53354e-013	-5.17221e-013	-4.73283e-013	-4.29433e-013	
FineR30	5.13849e-010	5.34727e-010	5.13238e-010	5.31942e-010	5.18341e-010	-4.92711e-012	-4.02815e-012	-3.43854e-012	-2.94858e-012	-2.4892e-012	-2.19367e-012	-1.77613e-012	-1.59387e-012	-1.30018e-012	-1.12138e-012	-9.61424e-013	-7.73353e-013	-5.62493e-013	-5.08445e-013	-3.39315e-013	-3.17824e-013	-1.39424e-013	-7.67935e-014	-4.10777e-014	3.61384e-015	1.31253e-013	
FineR40	5.15898e-010	5.01913e-010	5.14525e-010	5.4304e-010	5.12305e-010	-4.57507e-012	-3.87121e-012	-3.29242e-012	-2.67882e-012	-2.29134e-012	-1.90334e-012	-1.58743e-012	-1.25192e-012	-9.99287e-013	-7.97351e-013	-6.59565e-013	-5.63414e-013	-3.01427e-013	-2.56284e-013	-1.60427e-013	-2.29956e-014	6.36398e-014	1.08648e-013	2.13567e-013	2.9109e-013	3.54162e-013	
FineR50	5.06564e-010	5.26748e-010	5.21851e-010	5.27503e-010	5.12881e-010	-4.55125e-012	-3.66458e-012	-3.08549e-012	-2.54427e-012	-2.1865e-012	-1.83945e-012	-1.42133e-012	-1.18758e-012	-9.44089e-013	-6.72028e-013	-5.84804e-013	-3.22367e-013	-1.84483e-013	-1.39013e-013	-4.30113e-014	1.27014e-013	2.32231e-013	2.77494e-013	3.6446e-013	4.27929e-013	4.55055e-013	
FineR60	5.32181e-010	5.228e-010	5.16613e-010	5.20142e-010	5.30521e-010	-4.34529e-012	-3.62106e-012	-2.92006e-012	-2.51221e-012	-2.02106e-012	-1.67384e-012	-1.3478e-012	-1.07255e-012	-8.41606e-013	-5.98003e-013	-4.2757e-013	-2.8941e-013	-1.6064e-013	-2.27211e-014	1.15171e-013	2.11528e-013	2.75212e-013	3.44172e-013	3.57125e-013	4.76523e-013	5.31388e-013	
FineR70	5.00941e-010	5.22134e-010	5.23777e-010	5.43472e-010	5.40116e-010	-4.35318e-012	-3.56902e-012	-2.9803e-012	-2.43933e-012	-1.93806e-012	-1.59082e-012	-1.27448e-012	-1.03079e-012	-7.775e-013	-5.65495e-013	-4.3649e-013	-2.24551e-013	-7.69887e-014	-4.05793e-014	7.44551e-014	2.12388e-013	3.41125e-013	4.04935e-013	5.2443e-013	5.70233e-013	6.3379e-013	
FineR80	5.0131e-010	5.34531e-010	4.8467e-010	5.49617e-010	5.14266e-010	-4.32138e-012	-3.55699e-012	-2.9895e-012	-2.44864e-012	-2.00853e-012	-1.65103e-012	-1.29354e-012	-9.57297e-013	-7.13429e-013	-5.74679e-013	-3.62678e-013	-2.14903e-013	-8.59611e-014	9.37465e-014	1.8093e-013	1.944e-013	3.32363e-013	4.19735e-013	4.74405e-013	5.94339e-013	6.07165e-013	
FineR90	5.41752e-010	5.2286e-010	5.3803e-010	5.85221e-010	5.28243e-010	-4.2902e-012	-3.61722e-012	-2.92714e-012	-2.44789e-012	-1.92571e-012	-1.60958e-012	-1.29317e-012	-9.66633e-013	-7.64123e-013	-5.42494e-013	-4.54698e-013	-1.50445e-013	-9.49571e-014	3.39469e-014	2.22828e-013	2.27181e-013	3.23667e-013	4.19999e-013	5.16439e-013	5.94627e-013	6.40228e-013	
FineR100	4.98433e-010	5.17808e-010	5.25016e-010	5.40443e-010	5.40742e-010	-4.31031e-012	-3.58631e-012	-2.9675e-012	-2.37533e-012	-2.09968e-012	-1.53644e-012	-1.31219e-012	-9.76025e-013	-8.46587e-013	-5.51775e-013	-4.13113e-013	-2.01075e-013	-1.04193e-013	7.56036e-014	1.62943e-013	2.18138e-013	3.14742e-013	4.01984e-013	5.39986e-013	5.85829e-013	6.31474e-013	
FineR110	5.23141e-010	5.18473e-010	5.14375e-010	5.30822e-010	5.59732e-010	-4.44136e-012	-3.52487e-012	-2.87456e-012	-2.45672e-012	-2.08913e-012	-1.64803e-012	-1.32162e-012	-1.02673e-012	-8.14602e-013	-5.61111e-013	-3.39533e-013	-2.10274e-013	-7.18845e-014	5.72308e-014	1.63137e-013	2.92172e-013	2.96421e-013	4.43817e-013	4.89518e-013	5.44363e-013	5.4868e-013	
FineR120	5.07437e-010	5.26489e-010	5.4106e-010	5.32317e-010	5.34961e-010	-4.39967e-012	-3.61589e-012	-2.94566e-012	-2.4354e-012	-1.99531e-012	-1.58689e-012	-1.40396e-012	-1.12842e-012	-8.33556e-013	-6.02324e-013	-4.31713e-013	-2.19634e-013	-8.1137e-014	6.41762e-015	1.53942e-013	1.99869e-013	2.54985e-013	3.92891e-013	4.38822e-013	5.17068e-013	5.3962e-013	
FineR130	5.07708e-010	5.45329e-010	5.10815e-010	5.7313e-010	5.42461e-010	-4.46105e-012	-3.69647e-012	-2.89403e-012	-2.48594e-012	-1.99505e-012	-1.64742e-012	-1.37214e-012	-1.036e-012	-8.3334e-013	-5.89306e-013	-4.91877e-013	-3.02452e-013	-1.3193e-013	4.7935e-014	4.31527e-014	1.90468e-013	2.54834e-013	3.83645e-013	4.70951e-013	6.18363e-013	6.13494e-013	
FineR140	5.11435e-010	5.38373e-010	5.72402e-010	5.27836e-010	5.51167e-010	-4.4601e-012	-3.67636e-012	-2.99576e-012	-2.49552e-012	-2.08679e-012	-1.69808e-012	-1.3405e-012	-1.14738e-012	-8.33242e-013	-6.30624e-013	-4.82371e-013	-2.70332e-013	-1.41183e-013	-5.36153e-014	8.46822e-014	1.81353e-013	2.36566e-013	3.42207e-013	4.71078e-013	5.16964e-013	5.71887e-013	
FineR150	5.11639e-010	5.47232e-010	5.40644e-010	5.29923e-010	5.5577e-010	-4.51044e-012	-3.7058e-012	-3.00542e-012	-2.58739e-012	-2.12763e-012	-1.79013e-012	-1.38141e-012	-1.15679e-012	-8.61815e-013	-6.30482e-013	-5.8398e-013	-3.62521e-013	-1.82621e-013	-1.20707e-014	9.38965e-014	1.30546e-013	1.85571e-013	2.73059e-013	4.11126e-013	5.07613e-013	5.11966e-013	
FineR160	5.19715e-010	5.17877e-010	5.5586e-010	5.68163e-010	5.6308e-010	-4.56126e-012	-3.7264e-012	-3.04585e-012	-2.50506e-012	-2.18828e-012	-1.78991e-012	-1.49293e-012	-1.19795e-012	-9.0306e-013	-5.98523e-013	-5.51954e-013	-3.39856e-013	-1.41191e-013	-1.04409e-013	-1.68875e-014	1.30495e-013	1.44044e-013	2.3151e-013	3.69554e-013	4.56908e-013	5.12123e-013	
FineR170	5.28694e-010	5.35414e-010	5.23971e-010	5.42486e-010	5.42616e-010	-4.601e-012	-3.72571e-012	-3.10688e-012	-2.63763e-012	-2.22884e-012	-1.80927e-012	-1.48294e-012	-1.21705e-012	-9.53787e-013	-7.32065e-013	-5.19948e-013	-3.39856e-013	-2.42753e-013	-1.13735e-013	-5.83705e-014	7.97477e-014	1.43984e-013	1.98877e-013	3.27667e-013	4.24192e-013	4.10445e-013	
FineR180	5.41163e-010	5.33565e-010	5.1973e-010	5.32734e-010	5.46763e-010	-4.63309e-012	-3.81739e-012	-3.14738e-012	-2.61674e-012	-2.23861e-012	-1.86014e-012	-1.53379e-012	-1.17559e-012	-1.00463e-012	-7.82885e-013	-5.70762e-013	-4.13246e-013	-2.84257e-013	-9.51241e-014	-9.99735e-014	2.8843e-014	1.34658e-013	2.40325e-013	3.09276e-013	3.13664e-013	4.10055e-013	
FineR190	5.11405e-010	5.23974e-010	5.5034e-010	5.33442e-010	5.58641e-010	-4.62198e-012	-3.83815e-012	-3.11652e-012	-2.67802e-012	-2.24839e-012	-1.90108e-012	-1.57483e-012	-1.25803e-012	-1.03622e-012	-7.92335e-013	-5.51812e-013	-4.32065e-013	-3.44472e-013	-1.64626e-013	-6.78264e-014	7.94592e-014	1.00759e-014	1.89411e-013	2.67496e-013	3.96503e-013	4.09942e-013	
FineR200	5.37639e-010	5.25792e-010	5.23127e-010	5.44132e-010	5.01567e-010	-4.63234e-012	-3.86795e-012	-3.19794e-012	-2.65681e-012	-2.25816e-012	-1.85944e-012	-1.62547e-012	-1.24818e-012	-1.04573e-012	-8.43078e-013	-6.12069e-013	-4.82915e-013	-3.44447e-013	-1.64628e-013	-1.00142e-013	1.93389e-014	5.14707e-014	1.38642e-013	1.33641e-013	3.13222e-013	3.58873e-013	
FineR210	5.38677e-010	5.15544e-010	5.49126e-010	5.08588e-010	5.34481e-010	-4.75345e-012	-3.86766e-012	-3.20802e-012	-2.74866e-012	-2.27889e-012	-1.9517e-012	-1.58404e-012	-1.299e-012	-1.09655e-012	-7.92164e-013	-6.53429e-013	-4.82868e-013	-3.12357e-013	-2.06173e-013	-1.18725e-013	-2.21231e-014	3.28028e-014	1.8927e-013	2.16488e-013	2.7142e-013	4.00332e-013	
FineR220	5.10541e-010	5.45458e-010	5.3636e-010	5.26699e-010	5.43207e-010	5.29333e-010	-3.9188e-012	-3.20764e-012	-2.71787e-012	-2.32974e-012	-1.98269e-012	-1.59384e-012	-1.299e-012	-1.05509e-012	-8.84362e-013	-6.43956e-013	-4.92291e-013	-3.35139e-013	-2.47609e-013	-1.18862e-013	-5.45088e-014	1.15725e-013	1.19998e-013	1.24167e-013	1.88183e-013	3.17039e-013	
FineR230	5.09477e-010	5.24952e-010	5.30146e-010	5.53765e-010	5.48776e-010	-4.76433e-012	-3.9288e-012	-3.28942e-012	-2.79955e-012	-2.38088e-012	-1.97105e-012	-1.63485e-012	-1.34983e-012	-1.09629e-012	-8.84273e-013	-6.53397e-013	-5.9772e-013	-3.95274e-013	-2.89137e-013	-7.74084e-014	-1.56097e-013	-1.80963e-014	7.82788e-014	1.74728e-013	2.52801e-013	3.16661e-013	
FineR240	5.25907e-010	5.20065e-010	5.3939e-010	5.604e-010	5.90135e-010	-4.73397e-012	-3.9076e-012	-3.34035e-012	-2.79957e-012	-2.43173e-012	-1.96111e-012	-1.59362e-012	-1.35936e-012	-1.128e-012	-9.35192e-013	-6.72267e-013	-5.33712e-013	-4.55511e-013	-2.15583e-013	-2.11183e-013	-3.15782e-014	-2.73605e-014	1.01308e-013	1.33276e-013	2.61941e-013	2.56957e-013	
FineR250	5.14138e-010	5.38318e-010	5.15468e-010	5.56479e-010	5.54876e-010	-4.73422e-012	-3.99969e-012	-3.24819e-012	-2.74838e-012	-2.4418e-012	-2.01197e-012	-1.64445e-012	-1.31806e-012	-1.18858e-012	-9.35192e-013	-6.21403e-013	-5.33766e-013	-3.85981e-013	-2.47708e-013	-1.60447e-013	-6.39377e-014	-5.97634e-014	6.90837e-014	1.74728e-013	2.11005e-013	3.39891e-013	
MinCout:	3.61384e-015	FineR:	30	FineC:	240

	FineC140	FineC141	FineC142	FineC143	FineC144	FineC145	FineC146	FineC147	FineC148	FineC149	FineC150	FineC151	FineC152	FineC153	FineC154	FineC155	FineC156	FineC157	FineC158	FineC159	FineC160	
FineR100	-5.00905e-013	-5.42395e-013	-4.9157e-013	-5.52038e-013	-4.82296e-013	-4.82399e-013	-4.73036e-013	-4.31694e-013	-3.90357e-013	-3.80976e-013	-3.71603e-013	-3.71735e-013	-2.7012e-013	-3.20974e-013	-2.70226e-013	-2.70314e-013	-3.53274e-013	-2.10196e-013	-2.00904e-013	-1.59555e-013	-2.00992e-013	
FineR101	-5.5173e-013	-5.51833e-013	-5.4245e-013	-5.01101e-013	-4.18375e-013	-4.40954e-013	-3.58209e-013	-4.31675e-013	-4.54267e-013	-3.81009e-013	-3.3959e-013	-2.79441e-013	-3.11534e-013	-3.11556e-013	-2.79612e-013	-2.28865e-013	-1.78063e-013	-2.19582e-013	-2.2904e-013	-1.18035e-013	-2.00999e-013	
FineR102	-5.00858e-013	-5.00956e-013	-5.01003e-013	-4.18248e-013	-4.50272e-013	-4.08956e-013	-3.48736e-013	-4.82502e-013	-3.90265e-013	-3.301e-013	-3.90449e-013	-3.81136e-013	-3.30279e-013	-3.20949e-013	-3.21042e-013	-2.28797e-013	-1.78057e-013	-2.70402e-013	-1.68763e-013	-2.10283e-013	-2.10369e-013	
FineR103	-5.93115e-013	-5.00956e-013	-5.01054e-013	-5.01101e-013	-5.01152e-013	-3.99536e-013	-3.58127e-013	-3.99678e-013	-3.90265e-013	-3.39503e-013	-3.81009e-013	-3.30253e-013	-2.79441e-013	-2.28634e-013	-2.38115e-013	-2.70226e-013	-2.28878e-013	-2.19498e-013	-2.9305e-013	-2.4233e-013	-1.18035e-013	
FineR104	-5.10298e-013	-4.50084e-013	-5.01003e-013	-4.59653e-013	-4.50272e-013	-4.59836e-013	-4.40996e-013	-4.41038e-013	-3.90265e-013	-3.1694e-013	-4.22423e-013	-3.3019e-013	-3.39706e-013	-3.71797e-013	-1.96679e-013	-2.70226e-013	-2.60914e-013	-2.19498e-013	-2.10196e-013	-2.10283e-013	-2.51731e-013	
FineR105	-5.10255e-013	-5.19887e-013	-4.50084e-013	-5.23468e-013	-4.82193e-013	-4.31438e-013	-4.82399e-013	-4.41092e-013	-3.90265e-013	-3.90357e-013	-3.3959e-013	-4.13081e-013	-3.20857e-013	-3.52943e-013	-2.70138e-013	-2.70226e-013	-2.79652e-013	-2.19498e-013	-2.19582e-013	-2.51638e-013	-2.0091e-013	
FineR106	-4.78357e-013	-5.00858e-013	-5.42345e-013	-4.9157e-013	-4.50272e-013	-4.50365e-013	-4.40942e-013	-2.97926e-013	-3.8082e-013	-4.22322e-013	-3.80947e-013	-3.3019e-013	-2.47366e-013	-2.38036e-013	-2.88938e-013	-2.70226e-013	-2.19415e-013	-1.78063e-013	-2.19582e-013	-1.1796e-013	-2.10291e-013	
FineR107	-5.0076e-013	-4.5947e-013	-5.42345e-013	-5.01054e-013	-3.57962e-013	-4.40845e-013	-3.99536e-013	-4.31576e-013	-4.31675e-013	-2.88605e-013	-3.301e-013	-3.3019e-013	-2.37957e-013	-2.28634e-013	-2.7948e-013	-2.70155e-013	-2.79652e-013	-1.68608e-013	-2.19509e-013	-2.10205e-013	-2.10283e-013	
FineR108	-5.0076e-013	-5.10298e-013	-4.59517e-013	-4.69084e-013	-3.67416e-013	-5.01152e-013	-4.40942e-013	-3.99536e-013	-3.07381e-013	-3.48852e-013	-3.07511e-013	-3.39531e-013	-3.39619e-013	-2.88854e-013	-3.30369e-013	-2.79546e-013	-2.28797e-013	-2.19415e-013	-2.6093e-013	-1.68763e-013	-2.19666e-013	
FineR109	-5.10255e-013	-5.42185e-013	-4.68995e-013	-5.42395e-013	-4.59653e-013	-4.08869e-013	-3.58044e-013	-3.99536e-013	-3.39328e-013	-3.39415e-013	-2.98087e-013	-3.48967e-013	-3.3019e-013	-3.30279e-013	-2.38036e-013	-2.79546e-013	-2.38194e-013	-2.19415e-013	-1.68684e-013	-2.10196e-013	-2.51718e-013	
FineR110	-5.51583e-013	-4.36954e-013	-4.68955e-013	-5.00956e-013	-4.50178e-013	-4.08869e-013	-4.08908e-013	-3.48681e-013	-3.99626e-013	-3.39415e-013	-3.80853e-013	-3.71507e-013	-3.3019e-013	-2.47366e-013	-2.7005e-013	-2.28715e-013	-2.60824e-013	-1.77986e-013	-2.1011e-013	-2.10196e-013	-2.00821e-013	
FineR111	-5.197e-013	-5.6115e-013	-4.78443e-013	-3.99231e-013	-4.59607e-013	-4.50272e-013	-3.99447e-013	-3.48681e-013	-3.99626e-013	-3.90265e-013	-3.07459e-013	-3.39531e-013	-3.3019e-013	-3.20789e-013	-2.79461e-013	-2.79546e-013	-3.11578e-013	-2.60839e-013	-1.59229e-013	-1.59311e-013	-2.00821e-013	
FineR112	-4.68777e-013	-4.68866e-013	-5.6125e-013	-4.27636e-013	-4.50128e-013	-4.08821e-013	-3.99447e-013	-3.90082e-013	-4.31576e-013	-3.39356e-013	-3.80853e-013	-2.47273e-013	-3.71603e-013	-2.47349e-013	-2.7005e-013	-2.60734e-013	-2.19331e-013	-2.28809e-013	-2.19498e-013	-2.9305e-013	-1.68767e-013	
FineR113	-5.1016e-013	-4.59379e-013	-4.18079e-013	-4.78479e-013	-5.01003e-013	-4.50222e-013	-4.40845e-013	-3.58127e-013	-3.48712e-013	-3.8082e-013	-3.90301e-013	-3.80947e-013	-3.3019e-013	-2.37957e-013	-2.38036e-013	-2.88938e-013	-3.21042e-013	-2.28797e-013	-2.19415e-013	-2.6093e-013	-2.10196e-013	
FineR114	-5.29112e-013	-5.10202e-013	-5.00858e-013	-4.27554e-013	-4.08695e-013	-4.59653e-013	-4.08869e-013	-3.99499e-013	-4.08995e-013	-3.48766e-013	-3.39415e-013	-3.90357e-013	-3.301e-013	-3.3019e-013	-3.30279e-013	-2.88938e-013	-2.19321e-013	-2.28797e-013	-2.60839e-013	-2.19498e-013	-1.68688e-013	
FineR115	-5.19607e-013	-4.68817e-013	-4.87884e-013	-4.68955e-013	-4.59562e-013	-4.50178e-013	-3.9941e-013	-3.58044e-013	-3.48681e-013	-3.58209e-013	-3.07381e-013	-3.90357e-013	-3.20697e-013	-2.79356e-013	-2.37972e-013	-2.79461e-013	-1.87289e-013	-2.79632e-013	-1.36552e-013	-2.1011e-013	-7.64541e-014	
FineR116	-5.6099e-013	-4.68817e-013	-4.59424e-013	-5.10394e-013	-4.18163e-013	-4.18248e-013	-4.08869e-013	-3.76994e-013	-3.48712e-013	-3.58209e-013	-3.58292e-013	-3.90301e-013	-3.39531e-013	-2.88771e-013	-2.88854e-013	-2.38036e-013	-1.87289e-013	-2.70226e-013	-2.28809e-013	-2.19498e-013	-2.10196e-013	
FineR117	-5.19607e-013	-5.00709e-013	-5.00807e-013	-4.37033e-013	-4.18163e-013	-4.18248e-013	-4.40803e-013	-3.99499e-013	-3.07277e-013	-3.99626e-013	-3.39415e-013	-3.90357e-013	-3.301e-013	-3.3019e-013	-3.20857e-013	-2.38036e-013	-2.70138e-013	-1.77909e-013	-2.28809e-013	-2.1011e-013	-1.68688e-013	
FineR118	-4.46314e-013	-5.10202e-013	-4.27472e-013	-4.5947e-013	-4.08695e-013	-4.27718e-013	-4.1829e-013	-3.99499e-013	-3.99536e-013	-3.90174e-013	-3.07381e-013	-3.39444e-013	-2.56686e-013	-2.88771e-013	-2.79441e-013	-2.7005e-013	-2.47501e-013	-2.60824e-013	-2.28797e-013	-2.19498e-013	-1.27252e-013	
FineR119	-6.02369e-013	-4.68817e-013	-5.10298e-013	-4.5947e-013	-4.68995e-013	-3.67381e-013	-4.50272e-013	-3.99447e-013	-3.99536e-013	-3.07355e-013	-3.58259e-013	-3.58342e-013	-2.98087e-013	-3.3019e-013	-2.88854e-013	-2.38021e-013	-2.28703e-013	-2.19394e-013	-2.60839e-013	-1.87437e-013	-1.68688e-013	
FineR120	-5.29054e-013	-5.51583e-013	-5.51685e-013	-5.00858e-013	-4.69044e-013	-5.01054e-013	-3.67416e-013	-3.67496e-013	-3.58127e-013	-3.58177e-013	-3.58242e-013	-3.90301e-013	-2.98054e-013	-2.8871e-013	-3.30216e-013	-2.98272e-013	-1.96607e-013	-2.28715e-013	-1.68529e-013	-2.00645e-013	-1.68688e-013	
MinCout:	-7.64541e-014	FineR:	115	FineC:	160

