	CoarseC0	CoarseC10	CoarseC20	CoarseC30	CoarseC40	CoarseC50	CoarseC60	CoarseC70	CoarseC80	CoarseC90	CoarseC100	CoarseC110	CoarseC120	CoarseC130	CoarseC140	CoarseC150	CoarseC160	CoarseC170	CoarseC180	CoarseC190	CoarseC200	CoarseC210	CoarseC220	CoarseC230	CoarseC240	CoarseC250	
CoarseR0	7.24336e-012	9.84e-012	1.07133e-011	9.2157e-012	7.16377e-012	5.16405e-012	3.35378e-012	1.68983e-012	1.43284e-013	-1.21082e-012	-2.49958e-012	-3.62777e-012	-4.66438e-012	-5.58549e-012	-6.38976e-012	-7.14419e-012	-7.88473e-012	-8.4757e-012	-9.04764e-012	-9.56725e-012	-1.00374e-011	-1.04832e-011	-1.0877e-011	-1.12459e-011	-1.14924e-011	-1.17108e-011	
CoarseR10	1.03042e-011	1.21579e-011	1.11226e-011	9.07336e-012	7.12386e-012	5.28213e-012	3.56282e-012	1.96378e-012	5.21619e-013	-7.93051e-013	-1.99344e-012	-2.98508e-012	-3.94672e-012	-4.81649e-012	-5.59184e-012	-6.31141e-012	-7.04482e-012	-7.65244e-012	-8.16794e-012	-8.66136e-012	-9.13294e-012	-9.50825e-012	-9.82461e-012	-1.01843e-011	-1.04479e-011	-1.07153e-011	
CoarseR20	4.68579e-010	1.29315e-011	1.11257e-011	9.11531e-012	7.23796e-012	5.44843e-012	3.86162e-012	2.35323e-012	9.39784e-013	-2.62626e-013	-1.37332e-012	-2.37632e-012	-3.3807e-012	-4.17207e-012	-4.93321e-012	-5.63546e-012	-6.27442e-012	-6.85252e-012	-7.4021e-012	-7.81984e-012	-8.24625e-012	-8.68146e-012	-8.97946e-012	-9.28336e-012	-9.52258e-012	-9.76877e-012	
CoarseR30	5.23181e-010	1.28696e-011	1.10951e-011	9.17084e-012	7.3343e-012	5.62912e-012	4.23006e-012	2.7811e-012	1.49883e-012	2.51419e-013	-8.66021e-013	-1.78751e-012	-2.66436e-012	-3.54811e-012	-4.251e-012	-4.88139e-012	-5.55935e-012	-6.09477e-012	-6.52559e-012	-6.96544e-012	-7.41458e-012	-7.79448e-012	-8.10593e-012	-8.34835e-012	-8.63417e-012	-8.92616e-012	
CoarseR40	4.87959e-010	4.39122e-010	1.11417e-011	9.37069e-012	7.61009e-012	5.99966e-012	4.44411e-012	3.10654e-012	1.96997e-012	8.05606e-013	-3.02865e-013	-1.1646e-012	-2.08918e-012	-2.82579e-012	-3.52821e-012	-4.19281e-012	-4.78943e-012	-5.31194e-012	-5.83927e-012	-6.26147e-012	-6.65074e-012	-6.96555e-012	-7.28997e-012	-7.61905e-012	-7.8362e-012	-8.05709e-012	
CoarseR50	4.58035e-010	4.9191e-010	5.32128e-010	9.59685e-012	7.91439e-012	6.38092e-012	4.87272e-012	3.61605e-012	2.34722e-012	1.19385e-012	3.17519e-013	-6.35349e-013	-1.4862e-012	-2.25514e-012	-2.91067e-012	-3.57026e-012	-4.10771e-012	-4.65371e-012	-5.12115e-012	-5.59523e-012	-5.91714e-012	-6.24676e-012	-6.53948e-012	-6.79649e-012	-7.05829e-012	-7.32446e-012	
CoarseR60	4.62187e-010	5.06473e-010	5.16097e-010	5.07508e-010	8.22246e-012	6.83091e-012	5.33845e-012	4.09417e-012	2.86061e-012	1.77243e-012	8.94299e-013	-9.84023e-014	-7.82487e-013	-1.5507e-012	-2.26992e-012	-2.86807e-012	-3.42871e-012	-3.90756e-012	-4.39532e-012	-4.76188e-012	-5.16868e-012	-5.54791e-012	-5.88894e-012	-6.11115e-012	-6.2941e-012	-6.52556e-012	
CoarseR70	4.10253e-010	4.32079e-010	4.64697e-010	4.68338e-010	5.24395e-010	7.22643e-012	5.80376e-012	4.54568e-012	3.36988e-012	2.42094e-012	1.34619e-012	5.13341e-013	-3.59856e-013	-1.07453e-012	-1.6129e-012	-2.27703e-012	-2.811e-012	-3.34888e-012	-3.75771e-012	-4.17186e-012	-4.55322e-012	-4.89506e-012	-5.15919e-012	-5.42686e-012	-5.65352e-012	-5.88322e-012	
CoarseR80	4.03919e-010	4.18046e-010	4.70697e-010	5.1176e-010	5.05481e-010	7.68338e-012	6.30795e-012	5.12743e-012	3.97171e-012	2.90814e-012	1.89614e-012	1.10984e-012	3.33686e-013	-4.88631e-013	-1.12917e-012	-1.58606e-012	-2.13933e-012	-2.69159e-012	-3.15626e-012	-3.5798e-012	-3.88319e-012	-4.18561e-012	-4.53775e-012	-4.80726e-012	-5.03455e-012	-5.227e-012	
CoarseR90	4.21805e-010	4.54975e-010	4.59332e-010	5.14658e-010	5.15916e-010	5.56021e-010	6.78104e-012	5.60574e-012	4.54866e-012	3.42723e-012	2.48755e-012	1.63483e-012	8.23395e-013	1.16823e-013	-4.88608e-013	-1.08977e-012	-1.56794e-012	-2.03923e-012	-2.51345e-012	-2.91283e-012	-3.29662e-012	-3.65215e-012	-3.91846e-012	-4.18797e-012	-4.37649e-012	-4.55904e-012	
CoarseR100	4.25628e-010	4.73353e-010	4.60342e-010	5.06954e-010	5.15257e-010	5.1173e-010	7.2717e-012	6.12572e-012	4.9483e-012	4.0044e-012	3.00373e-012	2.22361e-012	1.4131e-012	6.9531e-013	2.73898e-014	-5.92508e-013	-1.06445e-012	-1.46117e-012	-1.9448e-012	-2.33096e-012	-2.72617e-012	-3.08292e-012	-3.35355e-012	-3.66925e-012	-3.89325e-012	-4.08285e-012	
CoarseR110	4.17452e-010	4.60504e-010	5.21347e-010	4.89145e-010	5.1294e-010	5.24684e-010	7.68909e-012	6.62451e-012	5.49594e-012	4.49961e-012	3.57687e-012	2.72506e-012	1.90726e-012	1.2239e-012	5.9137e-013	1.53003e-014	-5.4953e-013	-9.5475e-013	-1.34416e-012	-1.79741e-012	-2.1091e-012	-2.45959e-012	-2.72947e-012	-3.09174e-012	-3.319e-012	-3.50713e-012	
CoarseR120	4.49288e-010	4.84706e-010	5.20196e-010	5.08205e-010	4.92545e-010	4.92788e-010	8.00561e-012	6.963e-012	5.9232e-012	4.89113e-012	4.05552e-012	3.17747e-012	2.46872e-012	1.72204e-012	1.06952e-012	4.90871e-013	-4.0066e-014	-4.54033e-013	-8.42688e-013	-1.28989e-012	-1.6428e-012	-1.90794e-012	-2.26627e-012	-2.54363e-012	-2.81664e-012	-3.0085e-012	
CoarseR130	4.89615e-010	5.06637e-010	4.8588e-010	4.93581e-010	4.81889e-010	4.95927e-010	8.42088e-012	7.30805e-012	6.30754e-012	5.31873e-012	4.40172e-012	3.58277e-012	2.81914e-012	2.17855e-012	1.53134e-012	8.93442e-013	3.80028e-013	-6.87037e-014	-4.63297e-013	-8.67985e-013	-1.21892e-012	-1.53115e-012	-1.84619e-012	-2.11464e-012	-2.37884e-012	-2.60399e-012	
CoarseR140	4.83367e-010	4.99385e-010	4.89825e-010	4.91026e-010	4.73867e-010	4.96257e-010	8.66611e-012	7.63641e-012	6.59435e-012	5.66123e-012	4.81208e-012	3.92502e-012	3.18135e-012	2.47093e-012	1.87395e-012	1.27742e-012	7.80297e-013	3.1598e-013	-1.34433e-013	-4.882e-013	-8.37337e-013	-1.1964e-012	-1.51597e-012	-1.69156e-012	-2.0018e-012	-2.23835e-012	
CoarseR150	4.9547e-010	5.01388e-010	4.63472e-010	4.44895e-010	4.89339e-010	5.33437e-010	9.01655e-012	7.93674e-012	6.88756e-012	5.98082e-012	5.12836e-012	4.31193e-012	3.56713e-012	2.85666e-012	2.15936e-012	1.57288e-012	1.07718e-012	7.04679e-013	2.14733e-013	-1.949e-013	-5.49506e-013	-8.64521e-013	-1.1332e-012	-1.43819e-012	-1.67e-012	-1.90414e-012	
CoarseR160	4.73242e-010	4.25244e-010	4.5335e-010	4.73871e-010	4.93416e-010	5.46937e-010	9.329e-012	8.21915e-012	7.16615e-012	6.24531e-012	5.42185e-012	4.57442e-012	3.81955e-012	3.06974e-012	2.44642e-012	1.86204e-012	1.35951e-012	9.968e-013	5.33561e-013	1.9255e-013	-2.16659e-013	-6.11912e-013	-9.19921e-013	-1.18834e-012	-1.45965e-012	-1.5936e-012	
CoarseR170	4.25449e-010	4.36915e-010	4.6813e-010	4.75371e-010	5.11068e-010	5.59855e-010	9.50533e-012	8.44581e-012	7.43128e-012	6.49729e-012	5.62224e-012	4.76636e-012	4.02355e-012	3.34747e-012	2.74492e-012	2.16679e-012	1.71699e-012	1.22493e-012	8.2209e-013	3.84878e-013	2.71925e-014	-2.66762e-013	-6.28785e-013	-9.35958e-013	-1.19694e-012	-1.4265e-012	
CoarseR180	4.23887e-010	4.48095e-010	4.80129e-010	5.0288e-010	5.63936e-010	5.42395e-010	9.67722e-012	8.60424e-012	7.63058e-012	6.69732e-012	5.78365e-012	4.9695e-012	4.2191e-012	3.58489e-012	2.93518e-012	2.378e-012	1.91246e-012	1.45489e-012	1.01428e-012	5.79997e-013	2.41879e-013	-1.56453e-013	-3.68946e-013	-6.3315e-013	-9.4815e-013	-1.21685e-012	
CoarseR190	4.3728e-010	4.50153e-010	5.13698e-010	5.15121e-010	5.10214e-010	4.65583e-010	9.84824e-012	8.80282e-012	7.82991e-012	6.88638e-012	5.98612e-012	5.12417e-012	4.39465e-012	3.69357e-012	3.07772e-012	2.53291e-012	2.05102e-012	1.61448e-012	1.12734e-012	7.54162e-013	3.60829e-013	1.38279e-014	-2.53985e-013	-5.48104e-013	-7.7191e-013	-1.0302e-012	
CoarseR200	4.09723e-010	4.48748e-010	4.99316e-010	4.98789e-010	5.29359e-010	5.09754e-010	1.00332e-011	8.96134e-012	7.93754e-012	6.95635e-012	6.08869e-012	5.25927e-012	4.59357e-012	3.85622e-012	3.24268e-012	2.64137e-012	2.2111e-012	1.73708e-012	1.26148e-012	8.15106e-013	4.81896e-013	1.29188e-013	-1.68916e-013	-4.36955e-013	-7.31606e-013	-9.06806e-013	
CoarseR210	4.11032e-010	4.50866e-010	5.05155e-010	5.01252e-010	5.47926e-010	4.88482e-010	1.01389e-011	9.02927e-012	8.03562e-012	7.05884e-012	6.23383e-012	5.4182e-012	4.70543e-012	3.97147e-012	3.35076e-012	2.75226e-012	2.33362e-012	1.80398e-012	1.34024e-012	8.96814e-013	5.65721e-013	2.15052e-013	-1.29617e-013	-3.39043e-013	-5.99695e-013	-8.54325e-013	
CoarseR220	4.22418e-010	4.43872e-010	4.89927e-010	5.27584e-010	4.6387e-010	5.1056e-010	1.02473e-011	9.0885e-012	8.07036e-012	7.12552e-012	6.30324e-012	5.53116e-012	4.74163e-012	4.0799e-012	3.38246e-012	2.74725e-012	2.37092e-012	1.8042e-012	1.38298e-012	9.80843e-013	6.0371e-013	3.12541e-013	-7.02773e-014	-3.67175e-013	-5.86047e-013	-7.99293e-013	
CoarseR230	4.50094e-010	4.47959e-010	4.60902e-010	5.26637e-010	5.23301e-010	4.93317e-010	1.0239e-011	9.15155e-012	8.13652e-012	7.2355e-012	6.32626e-012	5.51759e-012	4.73174e-012	4.06216e-012	3.42831e-012	2.90487e-012	2.41162e-012	1.93621e-012	1.49882e-012	1.07699e-012	6.52657e-013	3.62996e-013	-1.75284e-014	-3.1299e-013	-5.70529e-013	-7.82715e-013	
CoarseR240	4.61319e-010	4.82896e-010	4.87083e-010	5.21138e-010	5.15282e-010	5.0529e-010	1.02486e-011	9.17788e-012	8.16744e-012	7.2299e-012	6.35282e-012	5.54769e-012	4.775e-012	4.05915e-012	3.47712e-012	2.94605e-012	2.4949e-012	1.99129e-012	1.50724e-012	1.09596e-012	6.73198e-013	3.45153e-013	4.51657e-014	-2.48587e-013	-5.4529e-013	-7.64426e-013	
CoarseR250	4.5617e-010	4.80965e-010	4.59354e-010	5.1631e-010	5.3339e-010	5.19713e-010	1.02895e-011	9.20931e-012	8.15099e-012	7.22893e-012	6.35503e-012	5.56354e-012	4.78294e-012	4.06989e-012	3.50954e-012	2.99088e-012	2.5117e-012	2.00053e-012	1.47832e-012	1.07788e-012	6.47742e-013	4.003e-013	1.01467e-013	-2.31284e-013	-4.95142e-013	-7.84939e-013	
MinCout:	1.38279e-014	CoarseR:	190	CoarseC:	210

	CoarseC240	CoarseC241	CoarseC242	CoarseC243	CoarseC244	CoarseC245	CoarseC246	CoarseC247	CoarseC248	CoarseC249	CoarseC250	CoarseC251	CoarseC252	CoarseC253	CoarseC254	CoarseC255	CoarseC255	CoarseC255	CoarseC255	CoarseC255	CoarseC255	
CoarseR150	-1.74052e-012	-1.73252e-012	-1.73184e-012	-1.77259e-012	-1.82096e-012	-1.813e-012	-1.81964e-012	-1.81139e-012	-1.85277e-012	-1.81008e-012	-1.85148e-012	-1.80153e-012	-1.89195e-012	-1.84201e-012	-1.84167e-012	-1.83383e-012	-1.83383e-012	-1.83383e-012	-1.83383e-012	-1.83383e-012	-1.84105e-012	
CoarseR151	-1.69349e-012	-1.69285e-012	-1.69216e-012	-1.73289e-012	-1.7739e-012	-1.78089e-012	-1.82164e-012	-1.82096e-012	-1.77128e-012	-1.85406e-012	-1.76997e-012	-1.88694e-012	-1.8104e-012	-1.89323e-012	-1.80184e-012	-1.79397e-012	-1.80122e-012	-1.80122e-012	-1.80873e-012	-1.80873e-012	-1.80122e-012	
CoarseR152	-1.61252e-012	-1.65322e-012	-1.69418e-012	-1.69349e-012	-1.69285e-012	-1.74122e-012	-1.77458e-012	-1.78126e-012	-1.77327e-012	-1.73088e-012	-1.80634e-012	-1.77128e-012	-1.8541e-012	-1.8117e-012	-1.80378e-012	-1.8104e-012	-1.80316e-012	-1.81071e-012	-1.81071e-012	-1.81071e-012	-1.81071e-012	
CoarseR153	-1.5655e-012	-1.61388e-012	-1.65456e-012	-1.69525e-012	-1.65322e-012	-1.69418e-012	-1.7349e-012	-1.73421e-012	-1.73358e-012	-1.73289e-012	-1.73226e-012	-1.77327e-012	-1.7653e-012	-1.77196e-012	-1.76401e-012	-1.80506e-012	-1.77096e-012	-1.77096e-012	-1.77096e-012	-1.77096e-012	-1.77096e-012	
CoarseR154	-1.57503e-012	-1.56659e-012	-1.57367e-012	-1.60688e-012	-1.65526e-012	-1.64687e-012	-1.65392e-012	-1.65322e-012	-1.69392e-012	-1.72723e-012	-1.69259e-012	-1.73358e-012	-1.73294e-012	-1.73226e-012	-1.72428e-012	-1.7653e-012	-1.7653e-012	-1.77264e-012	-1.73125e-012	-1.73125e-012	-1.73125e-012	
CoarseR155	-1.53552e-012	-1.53479e-012	-1.56769e-012	-1.60858e-012	-1.6082e-012	-1.60726e-012	-1.61433e-012	-1.60593e-012	-1.6543e-012	-1.64592e-012	-1.65296e-012	-1.69392e-012	-1.68589e-012	-1.68495e-012	-1.76792e-012	-1.73294e-012	-1.73294e-012	-1.72531e-012	-1.72531e-012	-1.69158e-012	-1.69158e-012	
CoarseR156	-1.80233e-012	-1.53632e-012	-1.53592e-012	-1.52744e-012	-1.61741e-012	-1.56769e-012	-1.61607e-012	-1.60764e-012	-1.5654e-012	-1.60631e-012	-1.61337e-012	-1.64661e-012	-1.64592e-012	-1.64529e-012	-1.69366e-012	-1.69328e-012	-1.68563e-012	-1.68563e-012	-1.68563e-012	-1.68563e-012	-1.68563e-012	
CoarseR157	-1.76221e-012	-1.75397e-012	-1.53769e-012	-1.53672e-012	-1.52854e-012	-1.57693e-012	-1.5272e-012	-1.57557e-012	-1.61646e-012	-1.60833e-012	-1.5735e-012	-1.64861e-012	-1.60606e-012	-1.73022e-012	-1.64661e-012	-1.60435e-012	-1.6873e-012	-1.60435e-012	-1.64598e-012	-1.60435e-012	-1.60435e-012	
CoarseR158	-1.76391e-012	-1.76327e-012	-1.80411e-012	-1.49702e-012	-1.53784e-012	-1.53688e-012	-1.53648e-012	-1.52798e-012	-1.56916e-012	-1.60978e-012	-1.52624e-012	-1.6162e-012	-1.52489e-012	-1.64899e-012	-1.56515e-012	-1.60606e-012	-1.60606e-012	-1.60581e-012	-1.60581e-012	-1.60606e-012	-1.56451e-012	
CoarseR159	-1.72417e-012	-1.76497e-012	-1.76401e-012	-1.5064e-012	-1.54719e-012	-1.49743e-012	-1.4967e-012	-1.48818e-012	-1.53688e-012	-1.52838e-012	-1.57707e-012	-1.52703e-012	-1.61729e-012	-1.56726e-012	-1.56688e-012	-1.60004e-012	-1.52465e-012	-1.56624e-012	-1.56624e-012	-1.56624e-012	-1.56624e-012	
CoarseR160	-1.69209e-012	-1.72492e-012	-1.69071e-012	-1.7315e-012	-1.49961e-012	-1.50681e-012	-1.4152e-012	-1.54662e-012	-1.45534e-012	-1.57921e-012	-1.48794e-012	-1.57786e-012	-1.48659e-012	-1.57683e-012	-1.52679e-012	-1.5264e-012	-1.5264e-012	-1.5339e-012	-1.5264e-012	-1.5339e-012	-1.5339e-012	
CoarseR161	-1.65213e-012	-1.69287e-012	-1.73336e-012	-1.6915e-012	-1.38456e-012	-1.46688e-012	-1.41679e-012	-1.50666e-012	-1.41539e-012	-1.53919e-012	-1.45551e-012	-1.57935e-012	-1.49566e-012	-1.53647e-012	-1.48675e-012	-1.48635e-012	-1.52789e-012	-1.48635e-012	-1.48635e-012	-1.49387e-012	-1.53542e-012	
CoarseR162	-1.66164e-012	-1.65293e-012	-1.69365e-012	-1.693e-012	-1.3445e-012	-1.3852e-012	-1.46772e-012	-1.42526e-012	-1.5078e-012	-1.45773e-012	-1.5403e-012	-1.45634e-012	-1.53894e-012	-1.49671e-012	-1.49606e-012	-1.52907e-012	-1.52907e-012	-1.45413e-012	-1.49566e-012	-1.48787e-012	-1.49566e-012	
CoarseR163	-1.61376e-012	-1.61303e-012	-1.65372e-012	-1.69416e-012	-1.70149e-012	-1.35327e-012	-1.42785e-012	-1.38541e-012	-1.50903e-012	-1.42568e-012	-1.46617e-012	-1.46575e-012	-1.45717e-012	-1.45676e-012	-1.58811e-012	-1.49688e-012	-1.49688e-012	-1.49688e-012	-1.49688e-012	-1.49688e-012	-1.50445e-012	
CoarseR164	-1.63103e-012	-1.62226e-012	-1.62159e-012	-1.65425e-012	-1.65385e-012	-1.69428e-012	-1.42912e-012	-1.38693e-012	-1.38627e-012	-1.50985e-012	-1.41866e-012	-1.50847e-012	-1.46659e-012	-1.54092e-012	-1.46519e-012	-1.50593e-012	-1.49809e-012	-1.49809e-012	-1.46453e-012	-1.45693e-012	-1.45693e-012	
CoarseR165	-1.5909e-012	-1.58244e-012	-1.62307e-012	-1.66346e-012	-1.65471e-012	-1.66206e-012	-1.44628e-012	-1.34681e-012	-1.47833e-012	-1.39471e-012	-1.38637e-012	-1.42682e-012	-1.4264e-012	-1.42597e-012	-1.46644e-012	-1.45817e-012	-1.46603e-012	-1.45817e-012	-1.42456e-012	-1.45817e-012	-1.45817e-012	
CoarseR166	-1.55116e-012	-1.55039e-012	-1.6243e-012	-1.66466e-012	-1.62289e-012	-1.62189e-012	-1.31545e-012	-1.43886e-012	-1.35539e-012	-1.42983e-012	-1.38767e-012	-1.43601e-012	-1.51051e-012	-1.42725e-012	-1.4677e-012	-1.42584e-012	-1.42584e-012	-1.42584e-012	-1.43348e-012	-1.43348e-012	-1.43348e-012	
CoarseR167	-1.5446e-012	-1.55167e-012	-1.58418e-012	-1.63259e-012	-1.62411e-012	-1.63116e-012	-1.66374e-012	-1.2827e-012	-1.39811e-012	-1.31489e-012	-1.3555e-012	-1.3959e-012	-1.39546e-012	-1.46992e-012	-1.42777e-012	-1.42711e-012	-1.42711e-012	-1.42711e-012	-1.42711e-012	-1.42711e-012	-1.42711e-012	
CoarseR168	-1.51267e-012	-1.54511e-012	-1.53627e-012	-1.58467e-012	-1.59208e-012	-1.62459e-012	-1.6236e-012	-1.31737e-012	-1.31692e-012	-1.39888e-012	-1.35684e-012	-1.43882e-012	-1.34768e-012	-1.396e-012	-1.39556e-012	-1.42829e-012	-1.43597e-012	-1.38721e-012	-1.39489e-012	-1.38721e-012	-1.39489e-012	
CoarseR169	-1.51388e-012	-1.50533e-012	-1.50432e-012	-1.54486e-012	-1.5855e-012	-1.58475e-012	-1.58375e-012	-1.27761e-012	-1.31794e-012	-1.35884e-012	-1.31682e-012	-1.4401e-012	-1.40571e-012	-1.39731e-012	-1.38893e-012	-1.38817e-012	-1.38817e-012	-1.42955e-012	-1.38817e-012	-1.35505e-012	-1.36275e-012	
CoarseR170	-1.51518e-012	-1.5144e-012	-1.55467e-012	-1.55399e-012	-1.51227e-012	-1.55254e-012	-1.59283e-012	-1.62529e-012	-1.27797e-012	-1.36794e-012	-1.33358e-012	-1.32514e-012	-1.44838e-012	-1.36501e-012	-1.39762e-012	-1.35582e-012	-1.35582e-012	-1.35582e-012	-1.35582e-012	-1.35582e-012	-1.39718e-012	
MinCout:	-1.27761e-012	CoarseR:	169	CoarseC:	247

	FineC0	FineC10	FineC20	FineC30	FineC40	FineC50	FineC60	FineC70	FineC80	FineC90	FineC100	FineC110	FineC120	FineC130	FineC140	FineC150	FineC160	FineC170	FineC180	FineC190	FineC200	FineC210	FineC220	FineC230	FineC240	FineC250	
FineR0	-1.47086e-012	-1.65467e-012	-1.79376e-012	-1.86703e-012	-1.93345e-012	-1.70072e-012	-1.74187e-012	-1.72677e-012	-1.76067e-012	-1.79493e-012	-1.78771e-012	-1.78794e-012	-1.82229e-012	-1.82255e-012	-1.82281e-012	-1.81565e-012	-1.85007e-012	-1.80875e-012	-1.85061e-012	-1.84346e-012	-1.80186e-012	-1.85143e-012	-1.84401e-012	-1.84428e-012	-1.84455e-012	-1.83712e-012	
FineR10	-1.37101e-012	-1.55352e-012	-1.60858e-012	-1.68115e-012	-1.73918e-012	-1.5561e-012	-1.54029e-012	-1.57371e-012	-1.61507e-012	-1.64898e-012	-1.64158e-012	-1.67531e-012	-1.66798e-012	-1.70959e-012	-1.70981e-012	-1.70224e-012	-1.70276e-012	-1.70299e-012	-1.73714e-012	-1.69568e-012	-1.68839e-012	-1.68865e-012	-1.73036e-012	-1.72307e-012	-1.73088e-012	-1.73114e-012	
FineR20	-1.33858e-012	-1.47957e-012	-1.58332e-012	-1.64767e-012	-1.75485e-012	-1.39834e-012	-1.50664e-012	-1.53994e-012	-1.62277e-012	-1.60743e-012	-1.60756e-012	-1.59988e-012	-1.64163e-012	-1.62645e-012	-1.62666e-012	-1.62687e-012	-1.66872e-012	-1.61976e-012	-1.66163e-012	-1.66188e-012	-1.66184e-012	-1.6621e-012	-1.65478e-012	-1.65504e-012	-1.64747e-012	-1.64772e-012	
FineR30	-1.29762e-012	-1.43801e-012	-1.58297e-012	-1.69661e-012	-1.72052e-012	-1.48889e-012	-1.52171e-012	-1.54735e-012	-1.53953e-012	-1.57326e-012	-1.60704e-012	-1.59935e-012	-1.64107e-012	-1.64127e-012	-1.63391e-012	-1.62629e-012	-1.58518e-012	-1.627e-012	-1.66858e-012	-1.61964e-012	-1.61988e-012	-1.62013e-012	-1.65416e-012	-1.62063e-012	-1.65466e-012	-1.62113e-012	
FineR40	-1.30537e-012	-1.48689e-012	-1.5904e-012	-1.69561e-012	-1.72779e-012	-1.48836e-012	-1.5214e-012	-1.54677e-012	-1.54678e-012	-1.58049e-012	-1.61424e-012	-1.60654e-012	-1.64041e-012	-1.59905e-012	-1.59949e-012	-1.63345e-012	-1.67524e-012	-1.63391e-012	-1.61872e-012	-1.62679e-012	-1.62704e-012	-1.61972e-012	-1.65346e-012	-1.66155e-012	-1.61264e-012	-1.61288e-012	
FineR50	-1.31295e-012	-1.47848e-012	-1.58999e-012	-1.65414e-012	-1.72732e-012	-1.4956e-012	-1.52076e-012	-1.5128e-012	-1.55395e-012	-1.58006e-012	-1.62137e-012	-1.61367e-012	-1.60629e-012	-1.64798e-012	-1.64036e-012	-1.63299e-012	-1.59192e-012	-1.63345e-012	-1.62613e-012	-1.61852e-012	-1.62659e-012	-1.61901e-012	-1.6684e-012	-1.61976e-012	-1.61976e-012	-1.61243e-012	
FineR60	-1.30476e-012	-1.44487e-012	-1.59757e-012	-1.70267e-012	-1.72685e-012	-1.49511e-012	-1.5206e-012	-1.55378e-012	-1.59495e-012	-1.58714e-012	-1.57967e-012	-1.57196e-012	-1.60579e-012	-1.60598e-012	-1.59861e-012	-1.5988e-012	-1.63274e-012	-1.59167e-012	-1.6332e-012	-1.62588e-012	-1.62609e-012	-1.62634e-012	-1.62659e-012	-1.61901e-012	-1.61926e-012	-1.61951e-012	
FineR70	-1.31241e-012	-1.49369e-012	-1.59705e-012	-1.66113e-012	-1.72658e-012	-1.49497e-012	-1.52796e-012	-1.55329e-012	-1.55329e-012	-1.58664e-012	-1.57917e-012	-1.6208e-012	-1.65464e-012	-1.60573e-012	-1.59811e-012	-1.63228e-012	-1.63249e-012	-1.63274e-012	-1.63295e-012	-1.6332e-012	-1.62588e-012	-1.62613e-012	-1.62638e-012	-1.62634e-012	-1.57747e-012	-1.57771e-012	
FineR80	-1.27136e-012	-1.44413e-012	-1.59679e-012	-1.66086e-012	-1.73398e-012	-1.49473e-012	-1.51987e-012	-1.55304e-012	-1.55304e-012	-1.58671e-012	-1.628e-012	-1.61273e-012	-1.61292e-012	-1.60523e-012	-1.63939e-012	-1.6396e-012	-1.59855e-012	-1.63249e-012	-1.58362e-012	-1.63295e-012	-1.6332e-012	-1.62588e-012	-1.65959e-012	-1.62638e-012	-1.61881e-012	-1.61905e-012	
FineR90	-1.26303e-012	-1.48515e-012	-1.58854e-012	-1.66033e-012	-1.72576e-012	-1.49448e-012	-1.51962e-012	-1.51167e-012	-1.5528e-012	-1.58646e-012	-1.61992e-012	-1.61248e-012	-1.61267e-012	-1.60498e-012	-1.64671e-012	-1.63934e-012	-1.59049e-012	-1.63199e-012	-1.63249e-012	-1.63244e-012	-1.62513e-012	-1.62538e-012	-1.62588e-012	-1.61831e-012	-1.61856e-012	-1.61881e-012	
FineR100	-1.2709e-012	-1.49293e-012	-1.59626e-012	-1.70131e-012	-1.72549e-012	-1.49424e-012	-1.53482e-012	-1.51902e-012	-1.55255e-012	-1.58621e-012	-1.57843e-012	-1.61222e-012	-1.5709e-012	-1.65407e-012	-1.60517e-012	-1.63909e-012	-1.59805e-012	-1.59044e-012	-1.59069e-012	-1.63244e-012	-1.63269e-012	-1.62538e-012	-1.62563e-012	-1.5843e-012	-1.62613e-012	-1.61856e-012	
FineR110	-1.31148e-012	-1.49268e-012	-1.596e-012	-1.70104e-012	-1.72522e-012	-1.49399e-012	-1.52698e-012	-1.55988e-012	-1.5523e-012	-1.54448e-012	-1.61966e-012	-1.61197e-012	-1.65361e-012	-1.60473e-012	-1.60492e-012	-1.63884e-012	-1.63904e-012	-1.63173e-012	-1.67349e-012	-1.63219e-012	-1.63244e-012	-1.62513e-012	-1.62538e-012	-1.58406e-012	-1.62588e-012	-1.61831e-012	
FineR120	-1.31935e-012	-1.48465e-012	-1.59574e-012	-1.70873e-012	-1.72522e-012	-1.50126e-012	-1.52673e-012	-1.55988e-012	-1.55205e-012	-1.58564e-012	-1.57793e-012	-1.61954e-012	-1.61216e-012	-1.60448e-012	-1.60467e-012	-1.6464e-012	-1.63904e-012	-1.59775e-012	-1.6395e-012	-1.63194e-012	-1.63244e-012	-1.62459e-012	-1.63265e-012	-1.6329e-012	-1.62534e-012	-1.62559e-012	
FineR130	-1.31124e-012	-1.44315e-012	-1.59574e-012	-1.70077e-012	-1.7739e-012	-1.49341e-012	-1.52673e-012	-1.52602e-012	-1.59318e-012	-1.58539e-012	-1.57793e-012	-1.57779e-012	-1.61941e-012	-1.61204e-012	-1.60467e-012	-1.63859e-012	-1.63879e-012	-1.58995e-012	-1.63144e-012	-1.63194e-012	-1.63219e-012	-1.62434e-012	-1.62484e-012	-1.62484e-012	-1.61752e-012	-1.61777e-012	
FineR140	-1.31911e-012	-1.4844e-012	-1.62868e-012	-1.70077e-012	-1.76596e-012	-1.50101e-012	-1.52615e-012	-1.51819e-012	-1.5593e-012	-1.59296e-012	-1.57768e-012	-1.57779e-012	-1.6116e-012	-1.61179e-012	-1.60442e-012	-1.60461e-012	-1.63854e-012	-1.5975e-012	-1.63144e-012	-1.6395e-012	-1.63189e-012	-1.63214e-012	-1.6324e-012	-1.62484e-012	-1.62509e-012	-1.62534e-012	
FineR150	-1.26981e-012	-1.49217e-012	-1.6364e-012	-1.74943e-012	-1.73225e-012	-1.50101e-012	-1.52615e-012	-1.51819e-012	-1.55148e-012	-1.59296e-012	-1.57768e-012	-1.61116e-012	-1.6116e-012	-1.61147e-012	-1.64563e-012	-1.64584e-012	-1.597e-012	-1.63874e-012	-1.58989e-012	-1.63139e-012	-1.62409e-012	-1.62434e-012	-1.6324e-012	-1.62484e-012	-1.62509e-012	-1.62534e-012	
FineR160	-1.26981e-012	-1.49179e-012	-1.59511e-012	-1.70014e-012	-1.72433e-012	-1.54207e-012	-1.52615e-012	-1.5593e-012	-1.55148e-012	-1.58514e-012	-1.57736e-012	-1.61897e-012	-1.61128e-012	-1.61147e-012	-1.60411e-012	-1.64584e-012	-1.597e-012	-1.5972e-012	-1.63114e-012	-1.63139e-012	-1.63164e-012	-1.62434e-012	-1.62459e-012	-1.62484e-012	-1.66636e-012	-1.62534e-012	
FineR170	-1.31061e-012	-1.49179e-012	-1.60283e-012	-1.70014e-012	-1.77327e-012	-1.49282e-012	-1.52615e-012	-1.56688e-012	-1.55148e-012	-1.58481e-012	-1.58492e-012	-1.62652e-012	-1.61884e-012	-1.61147e-012	-1.61166e-012	-1.60431e-012	-1.63823e-012	-1.5894e-012	-1.63869e-012	-1.63139e-012	-1.63164e-012	-1.63189e-012	-1.63185e-012	-1.61674e-012	-1.62479e-012	-1.6588e-012	
FineR180	-1.31847e-012	-1.49179e-012	-1.60283e-012	-1.66648e-012	-1.77327e-012	-1.49282e-012	-1.53339e-012	-1.55905e-012	-1.60017e-012	-1.59238e-012	-1.58492e-012	-1.61871e-012	-1.61103e-012	-1.61147e-012	-1.60386e-012	-1.60406e-012	-1.63798e-012	-1.63818e-012	-1.63089e-012	-1.63894e-012	-1.63134e-012	-1.63159e-012	-1.63185e-012	-1.62454e-012	-1.62479e-012	-1.61723e-012	
FineR190	-1.26941e-012	-1.45054e-012	-1.64375e-012	-1.70014e-012	-1.76534e-012	-1.49282e-012	-1.53339e-012	-1.55905e-012	-1.60017e-012	-1.59238e-012	-1.58492e-012	-1.57722e-012	-1.61103e-012	-1.61147e-012	-1.61166e-012	-1.59651e-012	-1.63823e-012	-1.63818e-012	-1.63089e-012	-1.63114e-012	-1.63134e-012	-1.63159e-012	-1.62404e-012	-1.61674e-012	-1.61699e-012	-1.62479e-012	
FineR200	-1.26918e-012	-1.45054e-012	-1.60245e-012	-1.70746e-012	-1.7319e-012	-1.50042e-012	-1.52556e-012	-1.60015e-012	-1.55115e-012	-1.58456e-012	-1.58492e-012	-1.57722e-012	-1.61103e-012	-1.60367e-012	-1.64507e-012	-1.60406e-012	-1.64578e-012	-1.63818e-012	-1.63089e-012	-1.67238e-012	-1.63134e-012	-1.62379e-012	-1.62404e-012	-1.6321e-012	-1.62454e-012	-1.61723e-012	
FineR210	-1.26918e-012	-1.49918e-012	-1.59448e-012	-1.70746e-012	-1.76534e-012	-1.54147e-012	-1.52556e-012	-1.55872e-012	-1.55871e-012	-1.59238e-012	-1.62608e-012	-1.6184e-012	-1.61103e-012	-1.64487e-012	-1.60386e-012	-1.64528e-012	-1.60425e-012	-1.63818e-012	-1.58935e-012	-1.63864e-012	-1.63134e-012	-1.63159e-012	-1.67311e-012	-1.66581e-012	-1.62479e-012	-1.61723e-012	
FineR220	-1.31807e-012	-1.48339e-012	-1.60245e-012	-1.70746e-012	-1.72398e-012	-1.88076e-012	-1.53339e-012	-1.55872e-012	-1.55115e-012	-1.58481e-012	-1.62608e-012	-1.6184e-012	-1.56953e-012	-1.60337e-012	-1.65288e-012	-1.64528e-012	-1.64548e-012	-1.63818e-012	-1.63059e-012	-1.63084e-012	-1.63109e-012	-1.62379e-012	-1.62404e-012	-1.66556e-012	-1.66581e-012	-1.62479e-012	
FineR230	-1.31807e-012	-1.49115e-012	-1.59448e-012	-1.69951e-012	-1.77264e-012	-1.54147e-012	-1.52556e-012	-1.55872e-012	-1.59202e-012	-1.59205e-012	-1.57679e-012	-1.6184e-012	-1.61072e-012	-1.61091e-012	-1.60356e-012	-1.64528e-012	-1.59645e-012	-1.63818e-012	-1.63059e-012	-1.63084e-012	-1.63134e-012	-1.63159e-012	-1.63155e-012	-1.66556e-012	-1.66581e-012	-1.6245e-012	
FineR240	-1.31807e-012	-1.49141e-012	-1.59448e-012	-1.69184e-012	-1.77264e-012	-1.54147e-012	-1.52556e-012	-1.55872e-012	-1.59202e-012	-1.59205e-012	-1.58459e-012	-1.5769e-012	-1.61072e-012	-1.60337e-012	-1.64507e-012	-1.64528e-012	-1.63768e-012	-1.59664e-012	-1.63059e-012	-1.63084e-012	-1.63109e-012	-1.66505e-012	-1.6653e-012	-1.624e-012	-1.62425e-012	-1.66607e-012	
FineR250	-1.30997e-012	-1.49115e-012	-1.59448e-012	-1.69951e-012	-1.76499e-012	-1.54147e-012	-1.52556e-012	-1.55872e-012	-1.59984e-012	-1.59205e-012	-1.57679e-012	-1.6184e-012	-1.61072e-012	-1.60337e-012	-1.60356e-012	-1.63748e-012	-1.63768e-012	-1.58885e-012	-1.63813e-012	-1.63084e-012	-1.63109e-012	-1.66505e-012	-1.63155e-012	-1.624e-012	-1.62425e-012	-1.6245e-012	
MinCout:	-1.26303e-012	FineR:	90	FineC:	0

	FineC220	FineC221	FineC222	FineC223	FineC224	FineC225	FineC226	FineC227	FineC228	FineC229	FineC230	FineC231	FineC232	FineC233	FineC234	FineC235	FineC236	FineC237	FineC238	FineC239	FineC240	
FineR0	-1.79497e-012	-1.79497e-012	-1.79497e-012	-1.79497e-012	-1.79497e-012	-1.79524e-012	-1.78754e-012	-1.83685e-012	-1.79524e-012	-1.83685e-012	-1.79524e-012	-1.82942e-012	-1.79524e-012	-1.82942e-012	-1.84455e-012	-1.7955e-012	-1.7955e-012	-1.83712e-012	-1.83712e-012	-1.83712e-012	-1.7955e-012	
FineR1	-1.79631e-012	-1.79631e-012	-1.79631e-012	-1.75472e-012	-1.79631e-012	-1.79631e-012	-1.79631e-012	-1.79631e-012	-1.75472e-012	-1.80404e-012	-1.79658e-012	-1.79658e-012	-1.79658e-012	-1.79658e-012	-1.79658e-012	-1.79658e-012	-1.79658e-012	-1.79658e-012	-1.79658e-012	-1.79658e-012	-1.75498e-012	
FineR2	-1.75528e-012	-1.75528e-012	-1.76302e-012	-1.76302e-012	-1.75554e-012	-1.7137e-012	-1.75554e-012	-1.75554e-012	-1.75554e-012	-1.75554e-012	-1.75554e-012	-1.76328e-012	-1.75554e-012	-1.75554e-012	-1.76328e-012	-1.75581e-012	-1.75581e-012	-1.75581e-012	-1.75581e-012	-1.75581e-012	-1.75581e-012	
FineR3	-1.76332e-012	-1.75583e-012	-1.75583e-012	-1.75583e-012	-1.75583e-012	-1.75583e-012	-1.75583e-012	-1.7561e-012	-1.7561e-012	-1.76359e-012	-1.7561e-012	-1.7561e-012	-1.7561e-012	-1.7561e-012	-1.7561e-012	-1.7561e-012	-1.76385e-012	-1.76385e-012	-1.75636e-012	-1.75636e-012	-1.75636e-012	
FineR4	-1.72208e-012	-1.72208e-012	-1.71458e-012	-1.72234e-012	-1.72234e-012	-1.71458e-012	-1.72234e-012	-1.72234e-012	-1.72234e-012	-1.72234e-012	-1.71484e-012	-1.71484e-012	-1.71484e-012	-1.71484e-012	-1.71484e-012	-1.7226e-012	-1.71484e-012	-1.71484e-012	-1.7226e-012	-1.7226e-012	-1.7226e-012	
FineR5	-1.72239e-012	-1.72239e-012	-1.72239e-012	-1.72239e-012	-1.71488e-012	-1.72239e-012	-1.71488e-012	-1.72265e-012	-1.72265e-012	-1.72265e-012	-1.72265e-012	-1.72265e-012	-1.72265e-012	-1.72265e-012	-1.72265e-012	-1.71513e-012	-1.71513e-012	-1.71513e-012	-1.7229e-012	-1.7229e-012	-1.7229e-012	
FineR6	-1.72269e-012	-1.72269e-012	-1.72269e-012	-1.72269e-012	-1.72269e-012	-1.73047e-012	-1.72295e-012	-1.72295e-012	-1.72295e-012	-1.72295e-012	-1.72295e-012	-1.72295e-012	-1.72295e-012	-1.72295e-012	-1.72295e-012	-1.72295e-012	-1.72295e-012	-1.72295e-012	-1.72321e-012	-1.72321e-012	-1.72321e-012	
FineR7	-1.72272e-012	-1.68123e-012	-1.72272e-012	-1.68901e-012	-1.68123e-012	-1.68901e-012	-1.68148e-012	-1.73051e-012	-1.68148e-012	-1.68148e-012	-1.68901e-012	-1.72298e-012	-1.72298e-012	-1.72298e-012	-1.72298e-012	-1.68148e-012	-1.73077e-012	-1.68148e-012	-1.68148e-012	-1.68148e-012	-1.67395e-012	
FineR8	-1.68881e-012	-1.68881e-012	-1.68127e-012	-1.68127e-012	-1.68127e-012	-1.72303e-012	-1.68127e-012	-1.68906e-012	-1.68906e-012	-1.68906e-012	-1.68906e-012	-1.68906e-012	-1.68906e-012	-1.68153e-012	-1.68153e-012	-1.68153e-012	-1.68153e-012	-1.68153e-012	-1.68153e-012	-1.68178e-012	-1.68932e-012	
FineR9	-1.68131e-012	-1.68131e-012	-1.68131e-012	-1.68911e-012	-1.68911e-012	-1.68911e-012	-1.68157e-012	-1.68911e-012	-1.68157e-012	-1.68157e-012	-1.68911e-012	-1.68157e-012	-1.68157e-012	-1.68936e-012	-1.68936e-012	-1.68936e-012	-1.68936e-012	-1.68936e-012	-1.68936e-012	-1.68182e-012	-1.68182e-012	
FineR10	-1.68916e-012	-1.73062e-012	-1.68916e-012	-1.68916e-012	-1.68161e-012	-1.64767e-012	-1.68161e-012	-1.68161e-012	-1.68941e-012	-1.68941e-012	-1.68941e-012	-1.68161e-012	-1.68941e-012	-1.68941e-012	-1.68941e-012	-1.65546e-012	-1.68186e-012	-1.68186e-012	-1.68186e-012	-1.68186e-012	-1.68967e-012	
FineR11	-1.68893e-012	-1.68893e-012	-1.69673e-012	-1.68918e-012	-1.68918e-012	-1.68918e-012	-1.68918e-012	-1.68918e-012	-1.69699e-012	-1.68918e-012	-1.68918e-012	-1.68163e-012	-1.68944e-012	-1.68163e-012	-1.68163e-012	-1.68944e-012	-1.68944e-012	-1.68944e-012	-1.68944e-012	-1.68944e-012	-1.68189e-012	
FineR12	-1.64751e-012	-1.64751e-012	-1.65531e-012	-1.63996e-012	-1.64751e-012	-1.64776e-012	-1.64776e-012	-1.64776e-012	-1.64776e-012	-1.64776e-012	-1.64776e-012	-1.64776e-012	-1.64776e-012	-1.64776e-012	-1.64776e-012	-1.64776e-012	-1.64021e-012	-1.64801e-012	-1.64801e-012	-1.68974e-012	-1.64801e-012	
FineR13	-1.63974e-012	-1.64754e-012	-1.64754e-012	-1.64754e-012	-1.64754e-012	-1.64754e-012	-1.64754e-012	-1.64754e-012	-1.64754e-012	-1.64754e-012	-1.69707e-012	-1.68951e-012	-1.64779e-012	-1.64779e-012	-1.64779e-012	-1.64779e-012	-1.64779e-012	-1.64779e-012	-1.68951e-012	-1.64779e-012	-1.64779e-012	
FineR14	-1.69684e-012	-1.64732e-012	-1.65512e-012	-1.64757e-012	-1.65512e-012	-1.64757e-012	-1.64757e-012	-1.64757e-012	-1.64757e-012	-1.64757e-012	-1.64001e-012	-1.64757e-012	-1.64757e-012	-1.65538e-012	-1.64001e-012	-1.64782e-012	-1.64782e-012	-1.64782e-012	-1.64782e-012	-1.64782e-012	-1.64782e-012	
FineR15	-1.64735e-012	-1.64735e-012	-1.65516e-012	-1.64735e-012	-1.64735e-012	-1.63979e-012	-1.6476e-012	-1.6476e-012	-1.6476e-012	-1.6476e-012	-1.6476e-012	-1.6476e-012	-1.6476e-012	-1.6476e-012	-1.6476e-012	-1.64004e-012	-1.64785e-012	-1.64785e-012	-1.6476e-012	-1.65541e-012	-1.64785e-012	
FineR16	-1.64738e-012	-1.64738e-012	-1.64738e-012	-1.64738e-012	-1.65519e-012	-1.65519e-012	-1.64763e-012	-1.65519e-012	-1.63982e-012	-1.64763e-012	-1.64763e-012	-1.64763e-012	-1.64763e-012	-1.64763e-012	-1.64763e-012	-1.64763e-012	-1.64006e-012	-1.64788e-012	-1.64788e-012	-1.64788e-012	-1.64788e-012	
FineR17	-1.64741e-012	-1.64741e-012	-1.64741e-012	-1.64741e-012	-1.65522e-012	-1.65522e-012	-1.65522e-012	-1.64766e-012	-1.65522e-012	-1.64766e-012	-1.64766e-012	-1.64766e-012	-1.64766e-012	-1.64766e-012	-1.65548e-012	-1.64766e-012	-1.65548e-012	-1.65548e-012	-1.65548e-012	-1.65548e-012	-1.64791e-012	
FineR18	-1.64744e-012	-1.64744e-012	-1.60576e-012	-1.65526e-012	-1.61357e-012	-1.64744e-012	-1.64744e-012	-1.64769e-012	-1.61357e-012	-1.64769e-012	-1.606e-012	-1.64769e-012	-1.606e-012	-1.64769e-012	-1.64769e-012	-1.64769e-012	-1.65551e-012	-1.64794e-012	-1.64794e-012	-1.64794e-012	-1.64794e-012	
FineR19	-1.60579e-012	-1.60579e-012	-1.6136e-012	-1.6136e-012	-1.6136e-012	-1.6136e-012	-1.6136e-012	-1.60604e-012	-1.60604e-012	-1.60604e-012	-1.60604e-012	-1.60604e-012	-1.60604e-012	-1.61385e-012	-1.61385e-012	-1.61385e-012	-1.60604e-012	-1.61385e-012	-1.60628e-012	-1.60628e-012	-1.60628e-012	
FineR20	-1.64722e-012	-1.65504e-012	-1.65504e-012	-1.64747e-012	-1.64747e-012	-1.60607e-012	-1.64747e-012	-1.64747e-012	-1.64747e-012	-1.64747e-012	-1.64747e-012	-1.64747e-012	-1.65529e-012	-1.64747e-012	-1.65529e-012	-1.65529e-012	-1.65529e-012	-1.64772e-012	-1.65529e-012	-1.64772e-012	-1.64772e-012	
MinCout:	-1.60576e-012	FineR:	18	FineC:	222

