	CoarseC0	CoarseC10	CoarseC20	CoarseC30	CoarseC40	CoarseC50	CoarseC60	CoarseC70	CoarseC80	CoarseC90	CoarseC100	CoarseC110	CoarseC120	CoarseC130	CoarseC140	CoarseC150	CoarseC160	CoarseC170	CoarseC180	CoarseC190	CoarseC200	CoarseC210	CoarseC220	CoarseC230	CoarseC240	CoarseC250	
CoarseR0	-3.0680699859881987E-9	-4.7722038136868754E-9	-2.754183023090203E-9	-2.5736819459971104E-9	-2.2032994966886883E-9	-2.521252215137811E-9	-2.0359870806244555E-9	-1.9441245372004974E-9	-1.969150096046055E-9	-1.743880203208087E-9	-1.6748462549189241E-9	-1.2653330709467153E-9	-1.426798495733195E-9	-1.1094187052000358E-9	-1.5109315885508411E-9	-9.57460320737274E-10	-9.41675496540062E-10	-1.0377989953705472E-9	-1.014142209737583E-9	-6.451197166427972E-10	-6.008745209692592E-10	-4.790542142727123E-10	-8.319844123216841E-10	-1.1174560703770455E-9	-1.0294316273050777E-9	-4.49139415480889E-10	
CoarseR10	-2.2120813580935025E-9	-2.0084681334388726E-9	-1.991016394987952E-9	-1.9226974429268903E-9	-1.6049448632324177E-9	-1.7377882423140476E-9	-1.3995682296772616E-9	-1.1222302570197705E-9	-1.0186753303836666E-9	-1.2924146905051835E-9	-6.625702570267368E-10	-9.221552556872857E-10	-5.969597875192154E-10	-9.114675457652734E-10	-6.211857453982618E-10	-6.368389890826564E-10	-7.407840905558322E-10	-4.363995056242489E-10	-5.88354313599018E-10	-5.311720016744931E-10	-5.021154765467865E-10	-1.5117933322289484E-10	-8.550317723999458E-11	1.0521653966453355E-11	-1.1553309802277695E-10	3.2679992547875233E-12	
CoarseR20	-1.8414815352533766E-9	-1.600962607828797E-9	-1.6266838869353918E-9	-1.339568230188072E-9	-1.1274368961908213E-9	-1.1138938832107622E-9	-8.541273482860622E-10	-6.415952861817355E-10	-7.690730438074161E-10	-6.931674273595695E-10	-3.2229480188232983E-10	-6.494725405622263E-10	-3.960133462047389E-10	-4.213932438816811E-10	-1.7999588341202477E-10	-3.535859735033504E-10	-4.533663697539114E-11	-5.3766989112574356E-11	-2.1251969331868532E-10	5.526894075781637E-11	1.4940544204982773E-10	1.7340099709849396E-10	4.581186230134068E-11	1.1259693601091999E-10	5.533817386732198E-10	3.245817358258717E-10	
CoarseR30	-1.3951152564098962E-9	-1.5415924123603334E-9	-1.3999754104323476E-9	-8.961202018022566E-10	-1.0364999832781102E-9	-9.307918221764026E-10	-5.424689123737523E-10	-4.684884555890505E-10	-4.704749274777153E-10	-3.278090498945791E-10	-1.5217923174370955E-10	-3.1465740060373207E-10	-2.608988364299038E-10	-6.511286633419817E-12	1.1324621278801729E-10	-1.5447753854094157E-10	-5.934104505940393E-12	1.8106242840197498E-10	1.2333729688104152E-10	1.407576543641517E-10	3.660754747044227E-10	1.9826096084956317E-10	1.1744157725366885E-10	3.4604071328517307E-10	3.9979425596069057E-10	3.775243503983076E-10	
CoarseR40	-1.5128185607382586E-9	-1.341332411460166E-9	-1.0056809185684125E-9	-8.269634575677836E-10	-7.621584916824771E-10	-6.245381096131591E-10	-5.741400056193155E-10	-4.1975936245649946E-10	-4.943097500799481E-10	-1.0224187705177591E-10	-3.5531460700420287E-10	-1.4294211913687837E-10	4.043098881269622E-11	1.7813271800940203E-10	3.211686133426764E-10	6.856610537205957E-11	2.927777109848463E-10	1.6015877754224923E-10	1.4199007673137972E-10	3.067247249419692E-10	4.891166779520397E-10	1.9333966332573353E-10	3.713407643938386E-10	5.777703726012054E-10	4.435865813352469E-10	5.617950283045646E-10	
CoarseR50	-1.114992066490327E-9	-1.0328638385028507E-9	-8.410792322212913E-10	-6.044792607221281E-10	-6.14902460176706E-10	-5.571635036230441E-10	-3.1064426272947535E-10	-2.6008119897067285E-10	-8.579648431215978E-11	-1.4554118161355525E-10	1.6133843133401754E-10	1.694787278488986E-10	-9.692481842329978E-12	9.316135126863992E-11	3.9624551357839187E-10	3.1345867397132875E-10	4.119786555799244E-10	4.651153436262644E-10	5.968606015189909E-10	6.34202951993753E-10	3.470255860238447E-10	6.950422214362398E-10	6.491782978821949E-10	6.282962556136296E-10	8.468003635551531E-10	6.200279769202359E-10	
CoarseR60	-1.13832571062055E-9	-7.582943734291468E-10	-6.698656173590027E-10	-4.3701403591341E-10	-3.146466623606976E-10	-3.0522875020394537E-10	-2.0370296910102725E-10	-7.300190076333052E-11	-7.550421769652963E-11	1.0178790473426407E-10	1.0750146769626818E-10	1.3706420557190082E-10	1.2053649760008176E-10	3.503787270699581E-10	5.131074074614882E-10	4.827873225294751E-10	5.835272549195543E-10	5.634798900045888E-10	5.622537296099273E-10	5.966063249768239E-10	7.140803227140841E-10	7.755213002927864E-10	7.211799660253274E-10	9.433562595803353E-10	8.059320609571906E-10	9.373259017460884E-10	
CoarseR70	-9.191185546944769E-10	-8.246307705909334E-10	-5.772934023783224E-10	-4.538779515062986E-10	-3.058672211634425E-10	-4.6199798016825745E-11	-4.711250624305654E-11	-2.9029478269047064E-11	1.5354584560715964E-10	4.979017017149076E-11	2.271290009701314E-10	2.638001565971083E-10	4.2182190598371535E-10	2.2428890692318806E-10	4.735522122725741E-10	4.050929661031117E-10	4.2427568295657677E-10	6.310753197043183E-10	5.971623299909413E-10	7.123811864044678E-10	7.23351224016592E-10	6.958593589401766E-10	8.397242156047073E-10	9.125525761876228E-10	7.507925081290359E-10	9.704025564002087E-10	
CoarseR80	-9.457115968677134E-10	-6.309202487092136E-10	-4.326587754656142E-10	-2.557582635113873E-10	-2.414798763399854E-10	-3.901120924219802E-12	1.1629883737083697E-10	1.4368896306555458E-10	1.346869966346483E-10	3.0008379362555454E-10	1.5066185464260984E-10	2.5199529195895577E-10	4.785816455339858E-10	5.864446485237333E-10	4.591745762559409E-10	6.411987566620513E-10	6.948882746915197E-10	7.586937038995508E-10	7.107348367614986E-10	7.328046195839338E-10	7.570903144351286E-10	7.72607757782625E-10	8.574704883926282E-10	8.21004228429215E-10	8.618001770506478E-10	9.400671566098034E-10	
CoarseR90	-7.694415828104463E-10	-5.432812636767272E-10	5.034071662032592E-11	-1.465349448208805E-10	-1.1766011793541874E-10	1.1757326642429433E-10	2.48694346072389E-11	2.2294391724092968E-10	2.1420618658084497E-10	3.509116314239151E-10	3.820969758044213E-10	3.8868006292972603E-10	5.156415158891823E-10	7.13855446167457E-10	6.11243369321093E-10	6.684835621787841E-10	6.663483109775278E-10	9.69325200057148E-10	6.302763630032677E-10	8.567632525170885E-10	9.367595374938303E-10	7.946973599938989E-10	9.891307468803858E-10	9.408588722731766E-10	8.042984640227081E-10	1.0863563826224214E-9	
CoarseR100	-6.44639534763932E-10	-4.934114171736993E-10	-3.9985874899947854E-10	2.0514318034602488E-10	-1.7092663591446244E-10	7.284559326707827E-11	2.321974129743151E-10	2.324246841738481E-10	3.0400140578500726E-10	4.0088249395169236E-10	3.2081068160011506E-10	4.5633053647779225E-10	5.484072366349795E-10	5.768641769210648E-10	5.515084613273801E-10	7.913079687843301E-10	7.8197988337166E-10	7.987830606775378E-10	7.229550072026153E-10	8.118308932207053E-10	9.900275933633813E-10	9.580011253899428E-10	1.0152776899307496E-9	9.15714925113229E-10	1.0694901689080876E-9	8.978824639119264E-10	
CoarseR110	-5.88801615168648E-10	-3.932068226336917E-10	-1.640377342033962E-10	-2.435035253805696E-10	1.849730489035839E-11	2.048968611413497E-10	1.7633993540877963E-10	2.123018266029457E-10	5.521767066679331E-10	4.504555765448005E-10	5.059154883888815E-10	6.044835717126491E-10	6.669101675598801E-10	7.154603561569781E-10	6.302918231454624E-10	4.636316913910193E-10	6.908565692062499E-10	7.930119057251775E-10	8.514778001797875E-10	8.721044445616871E-10	1.0360216981728E-9	9.462088871133876E-10	9.147839000474314E-10	8.605550432769722E-10	1.0828874590932546E-9	1.0199793184682068E-9	
CoarseR120	-5.476058407770546E-10	-2.9707784056937583E-10	2.2413695196103787E-10	6.461138564810998E-12	6.619379538467756E-11	1.7808177099283583E-10	1.580532232051417E-10	2.8890849359962004E-10	4.575117545258673E-10	4.848584277499467E-10	4.85498999370569E-10	6.529365696083834E-10	5.439935007221868E-10	7.184763958812027E-10	5.880398340326009E-10	7.087138955629787E-10	7.737329880406503E-10	8.207497190906417E-10	8.248302545042941E-10	9.617462430614402E-10	9.239621543570566E-10	9.825109328295172E-10	1.2814619331892494E-9	1.0645789925091702E-9	1.1538230867063382E-9	1.1291609413823082E-9	
CoarseR130	-4.4751546680178294E-10	-3.4127986325762356E-10	-2.500696653510349E-10	-5.7757753728395645E-11	-1.2698955643756556E-12	2.3327869413538184E-10	3.123952113861523E-10	3.384230213663895E-10	4.971503248227448E-10	6.242431416243763E-10	6.400690970058956E-10	6.392957204672754E-10	7.177532359532306E-10	8.051511170060089E-10	9.094975571124992E-10	8.662685984076387E-10	8.943824219002228E-10	1.0169346243328093E-9	9.897276546788784E-10	9.941075692562142E-10	1.091411113213742E-9	1.0838877607528202E-9	1.1064985938183941E-9	1.0520238990797945E-9	1.154570162334609E-9	1.2265986468861345E-9	
CoarseR140	-6.115962989535355E-10	-2.355830850356365E-10	-2.4733530292303367E-10	4.722974564374133E-12	1.725217132737505E-10	1.8012684424724117E-10	3.4267961095104266E-10	4.638816679337512E-10	4.797996368298788E-10	6.271743755674108E-10	7.015226550018896E-10	7.591557241033128E-10	6.944265998300967E-10	7.113099043193391E-10	8.570338806482635E-10	9.50756270094007E-10	9.99424490622764E-10	1.1787715774084399E-9	9.953272366596526E-10	1.131801975938547E-9	1.0253508747503216E-9	9.505838847725043E-10	1.0971132055569927E-9	1.2329607706415679E-9	1.1450948446452615E-9	1.1305799534837855E-9	
CoarseR150	-5.19160716942847E-10	-3.290368398683575E-10	-1.1609043232566498E-10	6.454182116921028E-10	1.7348296790048364E-10	4.2529280466370137E-10	4.055201867707859E-10	4.314515486502519E-10	6.137457841204458E-10	6.105000116874678E-10	7.937576628594467E-10	7.231992751172982E-10	8.493066591706234E-10	7.815646826784259E-10	8.888690534067023E-10	9.054224577894256E-10	1.0433768543913474E-9	1.09491240591188E-9	1.198435182776956E-9	1.125319675476283E-9	1.1187041655304959E-9	1.222049456085208E-9	1.229599717155925E-9	1.185011413773205E-9	1.2308012097961307E-9	1.3380895864617106E-9	
CoarseR160	-3.3099841407576025E-10	-5.833611818913181E-10	-4.0731765712295433E-10	-3.340199306015445E-10	-2.3557500046052183E-10	-9.012146810268491E-11	-5.727287834816155E-11	8.375908529529004E-11	1.8800076196220522E-10	2.5657168140622215E-10	2.603033241015416E-10	3.4924078808097487E-10	4.5819601346881125E-10	4.774932896813612E-10	5.054442134506004E-10	5.388232762952382E-10	5.757636049340117E-10	6.079678445033981E-10	6.427915320770482E-10	6.697080446926009E-10	7.264419947031976E-10	6.90638180626214E-10	7.114218286749643E-10	7.462709679075943E-10	7.803756134270775E-10	7.954330540542281E-10	
CoarseR170	-7.114813168996153E-10	-5.2604965436262E-10	-3.7793477846416497E-10	-2.5054248433636546E-10	-1.3806170653890034E-10	-9.203612535003662E-12	5.498957881664956E-11	1.0794075950141109E-10	2.099791846343559E-10	3.0613757991981974E-10	3.415330691711542E-10	3.4186359452281603E-10	4.3602647416314965E-10	4.981572366516796E-10	5.72031154045713E-10	5.553297759510119E-10	5.780157438727671E-10	6.545555107684844E-10	6.887827045978693E-10	7.125546116658102E-10	7.426973141621906E-10	7.635050628423112E-10	7.868573661553466E-10	8.326362603469095E-10	8.178545103513366E-10	8.34698258071613E-10	
CoarseR180	-6.029120479055394E-10	-4.724509594735888E-10	-3.574460882545192E-10	-2.0003357856601676E-10	-8.763944878190153E-11	1.421618383590088E-11	1.0263601321710702E-10	1.8419586083688492E-10	2.2997503384820815E-10	3.2483848727859774E-10	3.892652315727554E-10	4.4487031894032075E-10	4.6457036034110595E-10	5.716491630187853E-10	5.872091633221915E-10	6.58040242910478E-10	6.922952979479861E-10	6.97630786431434E-10	7.284201033376682E-10	7.828731628671347E-10	7.818693401643429E-10	8.051597482576231E-10	7.933711709726583E-10	8.416540569120788E-10	8.262101224486133E-10	8.692407863613916E-10	
CoarseR190	-5.764409752764584E-10	-4.201332264494904E-10	-2.505998486494316E-10	-1.8293916349446335E-10	-4.009946803387338E-11	5.911572338302092E-11	1.2031602341651784E-10	2.3167248990254035E-10	3.030807133596862E-10	3.4093795348777906E-10	4.3281500847901696E-10	4.875104732010225E-10	5.399977662402469E-10	6.419204720833973E-10	6.308570904132599E-10	6.375885717084037E-10	7.037347369215047E-10	7.363013391158049E-10	7.34680662511107E-10	7.945619021119529E-10	8.19607753201682E-10	8.393585934224608E-10	8.567382522531815E-10	8.770235937931307E-10	8.901771697936317E-10	9.027532528249473E-10	
CoarseR200	-5.551205016312782E-10	-3.74064512395605E-10	-2.321556229060163E-10	-1.0700286574474176E-10	2.6572179780170174E-11	1.5916729614951325E-10	1.6062368189533172E-10	2.7178408125157074E-10	3.4409146195148873E-10	4.1183937304654955E-10	4.725958002786743E-10	5.292830178626332E-10	5.794678836307724E-10	6.251155366722435E-10	6.684529239222459E-10	7.069076253722831E-10	7.137855452977486E-10	7.755160207028863E-10	8.033837022898436E-10	8.279369936859107E-10	8.534993746951811E-10	8.743163055295365E-10	8.933826898413959E-10	8.924518727424118E-10	8.902651730066015E-10	9.321981734539516E-10	
CoarseR210	-4.850286769795219E-10	-3.1844651379674716E-10	-2.0750400300676827E-10	-6.404366991370107E-11	4.4221662995425485E-11	1.706705169608381E-10	2.3254566834250868E-10	3.1216572311793555E-10	3.8413925462785275E-10	4.5206199110985383E-10	5.130592705580704E-10	5.664261477983479E-10	6.449731692041815E-10	6.626206655117751E-10	7.036336720704364E-10	7.447881745962697E-10	7.76299136738517E-10	8.097052451235962E-10	8.396198488837041E-10	8.639321979389003E-10	8.862049671102651E-10	9.372830430779792E-10	9.236261917290046E-10	9.082547423464768E-10	9.497091000302501E-10	9.574877012338702E-10	
CoarseR220	-4.993792214837169E-10	-2.899516482189554E-10	-1.4618575156746379E-10	-5.394627188653711E-11	5.5596452388033994E-11	2.1118977625898195E-10	3.000528974385188E-10	3.48434815799615E-10	4.2433940883572665E-10	4.895060812854766E-10	5.483130692271696E-10	6.018852011862108E-10	6.53072774909341E-10	7.002034784596895E-10	7.401171775638588E-10	7.789157688186293E-10	8.123870804641893E-10	8.522927153702601E-10	8.690242958378481E-10	8.965744484316097E-10	9.173546583026242E-10	9.378189218970152E-10	9.514364171313117E-10	9.6362388063679E-10	9.76791122795585E-10	9.855180969482986E-10	
CoarseR230	-4.5742962693373597E-10	-2.8179019064182286E-10	-1.1255460666856529E-10	9.472508976182652E-12	1.2053454136984907E-10	2.2092708304663674E-10	3.087374281013601E-10	3.864540010230735E-10	4.287903691212517E-10	4.965803978933514E-10	5.835223501813942E-10	6.382569213135367E-10	6.885374279570796E-10	7.315672541991303E-10	7.715889049965426E-10	8.11123247427861E-10	8.446912337337089E-10	8.732183103378081E-10	8.875553199798111E-10	9.265084211747101E-10	9.461831995646202E-10	9.720021861730836E-10	9.804947112236103E-10	9.96020150036568E-10	1.0045992924285412E-9	1.012105137428819E-9	
CoarseR240	-4.1898382097622966E-10	-2.4203100197265453E-10	-4.909246549974248E-11	4.8139168658743303E-11	1.567135037428568E-10	2.5124330160755663E-10	3.411215679910285E-10	3.9130561459211153E-10	4.89085433986489E-10	5.564378550300563E-10	6.155151779601538E-10	6.706142856061639E-10	7.742400991020706E-10	7.633902255516993E-10	8.035157276779066E-10	8.413674895460084E-10	8.755406380810686E-10	9.030821863251493E-10	9.324152265526814E-10	9.563633346040705E-10	9.734735883443397E-10	1.0206386642091999E-9	1.0059622347968883E-9	1.018853336274605E-9	1.0261959546803246E-9	1.0328668915210766E-9	
CoarseR250	-3.8423468605337363E-10	-1.7930952645319377E-10	-3.889643877711923E-11	8.352270320061639E-11	2.1717729275020267E-10	2.8150183122212394E-10	3.763387057010313E-10	4.540384342966799E-10	4.966622886802168E-10	5.904121895275104E-10	6.461144612034292E-10	7.04495828678646E-10	7.500624164958629E-10	7.925002571846122E-10	8.063822769953936E-10	8.703849338862122E-10	9.031273796296078E-10	9.63077919951579E-10	1.019129436225872E-9	9.821343142001667E-10	1.001043039906354E-9	1.0187835155996382E-9	1.030408797736913E-9	1.043157953635375E-9	1.0181212377895115E-9	1.0525858113135913E-9	
MinCout:	-1.2698955643756556E-12	CoarseR:	130	CoarseC:	40

	CoarseC50	CoarseC51	CoarseC52	CoarseC53	CoarseC54	CoarseC55	CoarseC56	CoarseC57	CoarseC58	CoarseC59	CoarseC60	CoarseC61	CoarseC62	CoarseC63	CoarseC64	CoarseC65	CoarseC66	CoarseC67	CoarseC68	CoarseC69	CoarseC70	
CoarseR150	-1.2227547249468227E-10	1.6958656640590665E-10	1.974409836122705E-10	6.995425767725136E-10	6.922536994073558E-10	3.436139778011233E-10	1.6784096471584104E-10	4.446086855243242E-10	4.392027461932721E-10	3.807755209093776E-10	3.6811087267220023E-10	2.395385590568066E-10	3.7860983759875316E-10	3.3682314605158565E-10	5.999983165685839E-10	4.3759635170066575E-10	5.294090213351028E-10	4.4596489557590115E-10	4.645756998253401E-10	5.921854659429119E-10	5.132474830269593E-10	
CoarseR151	3.2331905126478887E-10	3.8040516584985276E-10	3.1534724369668676E-10	3.8886514472051563E-10	7.326690732877477E-10	2.467780690810011E-10	3.2557617302733006E-10	2.6343110329171565E-10	3.8471806927794787E-10	3.9374978842213184E-10	5.770604036574809E-10	3.5502489092422647E-10	4.0339973534002457E-10	3.6839647098587044E-10	4.4576079801585817E-10	4.557325902496156E-10	4.576575232899887E-10	3.9257795139329834E-10	5.008450366316095E-10	5.737271533664548E-10	3.2059081251671926E-10	
CoarseR152	2.7287550772610376E-10	2.671015256864012E-10	2.813757575266331E-10	3.341795394504661E-10	2.4684187259363345E-10	3.8285935928613807E-10	3.550022867135077E-10	4.318249844211132E-10	3.6246559067284804E-10	1.722646931663247E-10	3.579257578088415E-10	3.6935446490623324E-10	3.985374930511212E-10	2.7398903008765253E-10	3.908499987337609E-10	5.001541749028937E-10	2.649131518642724E-10	5.089991437676478E-10	4.0032611475886373E-10	5.07053128875055E-10	4.729083484245681E-10	
CoarseR153	3.7655138490407065E-10	2.5440272277378406E-10	3.8814297141376666E-10	3.6338997621770707E-10	4.531307748718472E-10	4.0106918952560556E-10	4.0212390315769944E-10	3.338898479091018E-10	3.024883876174047E-10	3.666928318571024E-10	4.945194553822827E-10	3.6535852815860474E-10	3.8082310765422475E-10	4.0003215276818476E-10	3.6218599806025524E-10	3.678206150763406E-10	4.0003895503899685E-10	3.753664209926115E-10	3.862389547219752E-10	4.3010792316389245E-10	3.9996158823591165E-10	
CoarseR154	2.8679136413020783E-10	4.103240147524538E-10	-8.367288321310018E-11	-7.724393575960316E-11	-6.559358271687489E-11	-5.683342132913561E-11	-4.750631382835491E-11	-1.0035227966652508E-11	-2.941115022113831E-11	2.687784793816481E-10	5.155496392887085E-10	-3.113661641682449E-12	6.230231152936638E-12	1.4997681591550288E-11	2.4347335224316682E-11	5.297955655891567E-10	3.8956799838403755E-11	4.5962984736959156E-11	8.363283769439228E-11	6.411304934748606E-11	7.112311567486658E-11	
CoarseR155	-9.876404952975613E-11	-8.944809858340547E-11	-8.012810671830523E-11	-6.95967410132654E-11	-6.260247794245688E-11	-5.3839460006506044E-11	-4.217448043810388E-11	-3.517583053318564E-11	-2.6408870793388394E-11	-1.5872759713302753E-11	-5.958180707927413E-12	1.5279414731944606E-11	2.2266144572558993E-11	2.0941347182503188E-11	-3.504852267781972E-13	4.9050380924322134E-12	4.608301642963384E-11	5.134166148783291E-11	6.070792542347625E-11	6.773503783263478E-11	7.885846483978835E-11	
CoarseR156	-1.4183857662705026E-10	-8.236115076652504E-11	-7.303665095544074E-11	-6.483754706839773E-11	-5.5503401862496696E-11	-4.6170974728717266E-11	-3.740221231312561E-11	-3.039120863748527E-11	-2.1049352930927616E-11	-1.0509701086984523E-11	-5.2711862013890565E-12	7.612102658654846E-12	1.6965647374458526E-11	2.3975440031503205E-11	3.5101015134555226E-11	4.153784307639073E-11	4.97122694227588E-11	5.673868887822876E-11	6.37669733802826E-11	7.430334342458696E-11	8.016028282906008E-11	
CoarseR157	-8.810639633389985E-11	-8.110809563077177E-11	-7.001203648562043E-11	-6.124267486606154E-11	-4.8373320182061006E-11	-4.193947592804162E-11	-2.969496047505411E-11	-2.2687981977071138E-11	-1.2868207466645027E-11	-3.3690216661091722E-12	3.6405177889789346E-12	1.299470220956929E-11	2.0594600372434128E-11	2.937532120925113E-11	3.8164135417482957E-11	4.518037552329827E-11	5.689213931732583E-11	6.333402452440113E-11	7.094346901714572E-11	7.9730108413381E-11	1.1391950665978932E-10	
CoarseR158	-8.274326586028465E-11	-7.220327442752209E-11	-6.46400016532249E-11	-5.4098257171223396E-11	-4.299249273187845E-11	-3.59851078449512E-11	-2.7211866268494894E-11	-1.5525894783261547E-11	-3.739456708529855E-11	2.67052428773883E-13	9.047749484489509E-12	1.840672544068311E-11	2.895539057304884E-11	3.479388161322284E-11	4.299732513998887E-11	5.060744524239775E-11	6.232462960421851E-11	6.877021029644369E-11	7.638457540243576E-11	8.282443744179489E-11	9.456116967999711E-11	
CoarseR159	-7.912010579155959E-11	-6.914428426226243E-11	-5.7480568273941316E-11	-4.81340109575137E-11	-3.52549461893319E-11	-2.8813720255637287E-11	-2.00345034529935E-11	-1.068397602148087E-11	-3.096406248856853E-12	5.687200362769373E-12	1.6814243515499667E-11	2.3833308892219818E-11	3.143657633232996E-11	4.023121467651017E-11	4.959706364218621E-11	5.839621548053054E-11	6.542200322643639E-11	7.480353524844833E-11	8.007041017965959E-11	8.70995822643845E-11	9.648902552691575E-11	
CoarseR160	-7.19499497626825E-11	-6.317140034525396E-11	-5.439266901762392E-11	-4.271934863122026E-11	-7.649942145787632E-12	-2.5154594235339994E-11	-1.7000778828383982E-11	-6.446620021921744E-12	4.106563334001081E-12	1.170184077721365E-11	1.8149600167398943E-11	2.9283125901941295E-11	3.6888634410731894E-11	4.391485345889567E-11	5.3292153719297565E-11	6.208677972565116E-11	7.146991762164348E-11	8.026645828702234E-11	8.789159871407509E-11	9.492537335193827E-11	9.961428654039603E-11	
CoarseR161	-6.65228120191538E-11	-5.5409844132003214E-11	-5.016593038559604E-11	-1.1582556557237807E-11	-2.8494202317387365E-11	-2.091108100368276E-11	-9.786063939220496E-12	-9.940991743963828E-13	6.599984226987275E-12	1.539181366761209E-11	2.4761431855784472E-11	3.355529184638903E-11	4.235445551855866E-11	5.1726690113378856E-11	5.876469485304605E-11	6.756233942201686E-11	7.871417845776023E-11	8.457288562979128E-11	9.160951708696474E-11	9.866015367397685E-11	1.0746416529451756E-10	
CoarseR162	-6.107971388030768E-11	-5.293870965217594E-11	-4.1178407265478924E-11	-3.416423367820833E-11	-2.2465472001062085E-11	-1.4247440197228234E-11	-4.8929075169930995E-12	2.137669090015995E-12	9.731883487992874E-12	2.264041069396915E-11	3.200972798715937E-11	3.9041374775204363E-11	4.4307504111687923E-11	5.487847682109066E-11	6.660796464004138E-11	7.483104400079247E-11	5.1844233902646264E-11	8.596147130333405E-11	9.888954844389942E-11	1.0652586434716407E-10	1.1297305024953064E-10	
CoarseR163	-5.3921094396178915E-11	-4.802838288134812E-11	-3.690840315443434E-11	-2.8117029249962785E-11	-1.8758782689618344E-11	-9.396437819259256E-12	-1.1715473087034519E-12	8.194747903768432E-12	1.756511200349623E-11	2.6939535309597175E-11	3.396583870487685E-11	3.233480047927702E-11	5.157840777342582E-11	5.919140306775179E-11	6.799539695680562E-11	7.503433773265744E-11	8.266264194229414E-11	9.264560976101954E-11	9.96907176707242E-11	1.1026680375585629E-10	1.179095346879117E-10	
CoarseR164	-5.0772059487803945E-11	-4.374684102042669E-11	-3.262257512636504E-11	-2.382726263964441E-11	-1.4464740551004658E-11	5.132881981544318E-12	4.9045901184269675E-12	1.0732579721723417E-11	2.42176412341516E-11	3.067740755026708E-11	3.948154008187682E-11	4.944285018634619E-11	5.590507113747584E-11	6.52950606762526E-11	7.468907451951939E-11	8.291875489037062E-11	8.877850831042074E-11	9.935510669765231E-11	1.0699552978818922E-10	1.1816965941220962E-10	1.1991747558555558E-10	
CoarseR165	-4.5267350048826905E-11	-3.710681113144775E-11	-2.6547954306114794E-11	-1.95154848713762E-11	-8.379990299481844E-12	-1.344932350377025E-12	1.156315132807267E-11	1.683389606870627E-11	2.5626363644817916E-11	3.443146115288253E-11	4.381573522327174E-11	5.320407108256774E-11	6.08304320591188E-11	6.96418929999824E-11	7.669489348402155E-11	8.550818795045599E-11	9.491177680378693E-11	1.0195087114388688E-10	1.0959540205221785E-10	1.17830899892221E-10	1.2782910115109938E-10	
CoarseR166	-4.039574615701728E-11	-3.15940268458978E-11	-2.2228013611721315E-11	-1.2214009915085132E-11	-2.842804629972064E-12	4.754286706666589E-12	1.4132606622808739E-11	2.0598728255160353E-11	3.174897017697739E-11	4.2324678753808265E-11	4.994853605742643E-11	5.876046818158431E-11	6.815620757537622E-11	7.579032042692847E-11	8.224691209803693E-11	8.988671698941492E-11	9.929604684894503E-11	1.0988155066793315E-10	1.169371102180432E-10	1.2458940311627766E-10	1.3339909545079433E-10	
CoarseR167	-3.8396295569856606E-11	-2.5494545303186708E-11	-1.4903664286722223E-11	-7.872188155094223E-12	1.5088499980470534E-12	1.0294321451625679E-11	2.0251877908890595E-11	2.7297224913695774E-11	3.610905361320716E-11	4.492284162250773E-11	5.431686955198108E-11	6.371498115336018E-11	7.076710302992208E-11	8.017125337936326E-11	8.899156057658753E-11	9.662001941031403E-11	1.0487702264431453E-10	1.1427626603263462E-10	1.1957091926959915E-10	1.2899246779773055E-10	1.3603924515416664E-10	
CoarseR168	-2.99349480356563E-11	-2.1125878400638203E-11	-4.231588432491912E-11	-3.5142186162650167E-12	6.4401349863729915E-12	1.291156428151619E-11	2.4064287058423206E-11	3.522084531819454E-11	3.9928677455126615E-11	5.3433667937346647E-11	6.046715163571742E-11	6.752111580367181E-11	7.515976620485405E-11	8.456824228211713E-11	9.693006008527183E-11	1.0222499864068226E-10	1.1164277318272281E-10	1.1692195899221946E-10	1.2575051218175864E-10	1.3517640119274813E-10	1.4165758577641282E-10	
CoarseR169	-2.6144658810119463E-11	-1.6759286307643185E-11	-6.187265479474286E-12	8.599802318086355E-13	1.2016578286640392E-11	1.9060751595382976E-11	2.8450865471100156E-11	3.726991295551898E-11	4.6089126460061745E-11	5.548738703159178E-11	6.430874444455431E-11	7.429624387094338E-11	8.133430590792093E-11	8.781384827555948E-11	9.957488486024236E-11	1.0605556914091766E-10	1.1605867501193141E-10	1.2136951691097173E-10	9.896049067482795E-11	1.3961156628613422E-10	1.4668163245231008E-10	
CoarseR170	-2.17548102523534E-11	-1.237636285443537E-11	-1.7921680472159689E-12	7.592553879415529E-12	1.6411460659153073E-11	2.5802405793392068E-11	3.519751413560993E-11	4.2254308683475056E-11	5.107803787236596E-11	6.166806083273446E-11	6.872759986330475E-11	7.811180909088542E-11	8.575933742914E-11	9.28238282625694E-11	1.0341905375678432E-10	1.1284003379488882E-10	1.205002500348048E-10	1.2698582867928112E-10	1.3462827130831743E-10	1.428833669952558E-10	1.5113693930993845E-10	
MinCout:	2.67052428773883E-13	CoarseR:	158	CoarseC:	59

	FineC0	FineC10	FineC20	FineC30	FineC40	FineC50	FineC60	FineC70	FineC80	FineC90	FineC100	FineC110	FineC120	FineC130	FineC140	FineC150	FineC160	FineC170	FineC180	FineC190	FineC200	FineC210	FineC220	FineC230	FineC240	FineC250	
FineR0	-6.062314477123913E-10	-2.44272225528566E-10	-1.517147305922017E-10	7.945416552343353E-11	1.0309551363811801E-10	8.411139852910641E-11	1.6706810946079584E-10	2.6734391919554743E-10	1.5868531135242667E-10	2.087586262248656E-10	2.3627782801335845E-10	1.668629107046951E-10	1.820003304395018E-10	1.9842464138745903E-10	3.815841402173327E-10	3.2991924433557827E-10	2.8756515281915206E-10	3.426571046195018E-10	4.1613873780801423E-10	2.6576659112390634E-10	3.8726285438648936E-10	3.7476175373980426E-10	4.739595288332461E-10	3.120106823883682E-10	1.6823993808030873E-10	4.0353175487285E-10	
FineR10	-1.8131682832344766E-10	-1.0306134081218022E-10	6.869091109461827E-11	6.581563081405557E-10	1.7948064588398932E-10	8.434708720217158E-11	6.960121525194645E-11	2.1275631571525963E-10	1.440495064327238E-10	3.6097090401855464E-10	2.3253679910099992E-10	1.0532014268538731E-10	3.4246120228587024E-10	3.4026632216659354E-10	2.1192323521560066E-10	2.0051808001969383E-10	3.309747184516431E-10	4.1416563072996063E-10	3.442956192494283E-10	3.257084490188741E-10	4.4410827378889116E-10	3.6832696465840593E-10	2.25598542296587E-10	3.4796885879375227E-10	2.0449018355810974E-10	3.2923268793183914E-10	
FineR20	-2.681519289490444E-10	-4.5869390240330104E-10	-3.4346674048937986E-10	-2.8052223957140617E-10	-2.3336686572836286E-10	-1.8972553511650618E-10	-1.58851787120218E-10	-1.320590258186371E-10	-1.0460559970705544E-10	-8.94895117254525E-11	-7.020277374653194E-11	-5.443701901932057E-11	-4.219573935864127E-11	-2.9906050208479355E-11	-1.6456786695354153E-11	-7.110112676260159E-12	3.4290862772586156E-12	1.0440961628894106E-11	1.627772736165741E-11	2.3295497938188236E-11	2.7979752386947793E-11	3.441582462369141E-11	4.145384717519841E-11	4.6135829226464834E-11	5.082282051939563E-11	5.4932726785401686E-11	
FineR30	-5.476136623930254E-10	-4.1803848358318164E-10	-3.364422434298684E-10	-2.7118283989463283E-10	-2.2343744728096248E-10	-1.803368438314637E-10	-1.4944567268557313E-10	-1.2318495085065906E-10	-9.813064660241004E-11	-7.650367343656344E-11	-6.074393582847054E-11	-4.730528306718454E-11	-3.153459684630928E-11	-1.808332237788072E-11	-9.30855758963616E-12	4.247531023153649E-14	9.408049536279429E-12	2.111514850363289E-11	2.5206101324407975E-11	3.047248620592893E-11	3.926396977471727E-11	4.4536113533147955E-11	4.921183084346576E-11	5.56770050494606E-11	6.154197395885772E-11	6.446420735630343E-11	
FineR40	-5.371063939028135E-10	-4.105690030388629E-10	-3.312079566536469E-10	-2.664384952666679E-10	-2.1461898525907378E-10	-1.7557547961915085E-10	-1.4413438488949859E-10	-1.1609156248916319E-10	-8.981414566493206E-11	-7.293036950941445E-11	-5.539350787307304E-11	-4.0181780533020896E-11	-2.6733292332802346E-11	-1.5046932923799055E-11	-1.0125168926737805E-12	8.95386428393687E-12	1.7129072859013092E-11	2.357646704880338E-11	3.236061531997699E-11	3.762863566769683E-11	4.5838218624483343E-11	4.93443912544221E-11	5.7555046714358446E-11	5.872133099434024E-11	6.458900516939288E-11	6.986836580799084E-11	
FineR50	-5.336777829500285E-10	-4.0710294118850576E-10	-3.24167780526931E-10	-2.6063660610879365E-10	-2.1286517273145595E-10	-1.7026484051535117E-10	-1.393623805665597E-10	-1.1253223142475554E-10	-8.625189019916217E-11	-6.815526675462651E-11	-5.238219982558528E-11	-3.483486684103615E-11	-2.138280569607996E-11	-9.692785902909162E-12	3.1907557480880427E-12	1.1362676160649343E-11	2.0151840739291566E-11	2.8937524104310866E-11	3.773048046008902E-11	4.299973130361519E-11	4.944573658220866E-11	5.471920642140804E-11	5.940706238321024E-11	6.527610993028699E-11	6.878876633689493E-11	7.465822444563129E-11	
FineR60	-5.303618398139234E-10	-4.0168031018213606E-10	-3.218046423482006E-10	-2.5593992148226025E-10	-2.0871437932777336E-10	-1.6909211417167407E-10	-1.352010553565713E-10	-1.1013754724817235E-10	-8.561789101304098E-11	-6.454862613261638E-11	-4.587151698298656E-11	-3.361986577607041E-11	-1.8400839012644104E-11	-5.513299758775987E-12	4.417078482635217E-12	1.4971476048736706E-11	2.1990305947539952E-11	2.9595409799307E-11	4.015657206526259E-11	4.7764599517023074E-11	5.421739989769165E-11	5.77259542628509E-11	6.359699502290376E-11	7.004568565373436E-11	7.47461970245595E-11	7.590448078924941E-11	
FineR70	-5.278775301284262E-10	-4.0174807863814583E-10	-3.200758944892885E-10	-2.5648680505756654E-10	-2.0571554017967172E-10	-1.701947025565121E-10	-1.3286511069956087E-10	-1.0890847795100669E-10	-8.318872477830321E-11	-6.275851237696118E-11	-4.46419661843723E-11	-3.005810078538045E-11	-1.5974943725854236E-11	-3.709782951034496E-12	7.41657942804255E-12	1.5012914232881034E-11	2.6147226005300864E-11	3.436071928174416E-11	4.0204242417886805E-11	4.841881761645855E-11	5.369096783539602E-11	6.24940490151157E-11	6.54166698744849E-11	7.18785434738629E-11	7.421177847849744E-11	7.890910616776395E-11	
FineR80	-5.261172888083372E-10	-3.9997752846232093E-10	-3.200742950637357E-10	-2.552559488748906E-10	-2.0392671008116122E-10	-1.6486119168303336E-10	-1.316317801667696E-10	-1.0657604473363355E-10	-8.026569256479935E-11	-6.272408959543891E-11	-7.349902491890461E-11	-2.8822400379656184E-11	-1.3599141944305712E-11	-1.9035488652285963E-12	9.221750991396245E-12	1.8588133500470264E-11	2.5612756920261315E-11	3.4983200748633025E-11	4.378103565739828E-11	4.904404407986527E-11	5.726841001769148E-11	6.195264811745438E-11	7.076068276389444E-11	7.133951618078704E-11	7.661606784691836E-11	8.072711257841451E-11	
FineR90	-5.237510559682871E-10	-3.976628771644332E-10	-3.1596940818858417E-10	-2.2532646439844844E-10	-2.0335198959328504E-10	-1.619471536879263E-10	-1.274841651864031E-10	-1.0064355830673338E-10	-7.78962990330166E-11	-6.035141191316006E-11	-4.0463398005121565E-11	-2.467581974217009E-11	-1.2411049569092042E-11	1.0536419334416377E-12	1.1607729557406115E-11	2.097263387078023E-11	3.034369258592855E-11	3.7374041342885934E-11	4.617358899865232E-11	5.438987969403813E-11	5.788831200706489E-11	6.434875494222527E-11	6.962616011572235E-11	7.432719065132252E-11	8.018944027585311E-11	8.370625347180596E-11	
FineR100	-5.236992879449406E-10	-3.97558613759342E-10	-3.135962584513896E-10	-2.523171007077361E-10	-2.0097565094222667E-10	-1.5959082925283597E-10	-1.2632935308342964E-10	-1.0004587371828105E-10	-7.960846356667306E-11	-5.7968814499067824E-11	-4.105103773536525E-11	-2.2292006823672953E-11	-1.002663140978876E-11	1.6730121548852762E-12	1.103683321247142E-11	2.0404666528598588E-11	3.038789604418343E-11	3.9760867227916897E-11	4.679631024035955E-11	5.382472159995985E-11	5.6754379498735844E-11	6.732729384228781E-11	7.378039142465627E-11	7.789055130370664E-11	8.081482033489876E-11	8.433182898030236E-11	
FineR110	-5.203412579769677E-10	-3.964270491781318E-10	-3.1245179309949906E-10	-2.511633790340113E-10	-1.9981410725858463E-10	-1.6017255758337422E-10	-1.262650736278742E-10	-1.0063844280492048E-10	-7.899474205379764E-11	-5.854525674226788E-11	-4.09928978811358E-11	-2.3438194334763525E-11	-8.211507312790998E-12	1.7193966359651038E-12	1.342287069480315E-11	2.2215332338523112E-11	3.158586082351618E-11	3.9195012256169396E-11	4.5646455685352516E-11	5.444897264827187E-11	5.913647316004355E-11	6.794249581377001E-11	7.263140845311995E-11	7.909590804365658E-11	8.144091294161861E-11	8.612951417433297E-11	
FineR120	-5.174404964441846E-10	-3.9529459253171175E-10	-3.0952926670038876E-10	-2.5000876363688667E-10	-1.9865166926315216E-10	-1.6010179299158433E-10	-1.250913634724421E-10	-1.0001151262667491E-10	-7.547740967463335E-11	-5.503132688703931E-11	-4.214335597899398E-11	-2.224800936572507E-11	-8.786301021743228E-12	4.680519906321695E-12	1.4044576643065454E-11	2.4600869085215102E-11	3.4551468428736876E-11	3.981273584715222E-11	4.861397971690406E-11	5.5066048479686E-11	6.033950680927543E-11	6.679280446670404E-11	7.325748054582092E-11	7.677169446922302E-11	8.32272009102959E-11	8.557279327469493E-11	
FineR130	-5.180419525756871E-10	-3.941080615354899E-10	-3.11170801145798E-10	-2.458228571476181E-10	-1.9801746673357037E-10	-1.5660110484721614E-10	-1.2335360460152844E-10	-9.529350450037863E-11	-7.4294962343581E-11	-5.4406659471916136E-11	-3.6849229959436454E-11	-2.105435544161397E-11	-7.0209859354301845E-12	4.107728512819923E-12	1.523912984007026E-11	2.403256466612031E-11	3.340429889223416E-11	4.043135372144277E-11	5.157524440332469E-11	5.5080963343182E-11	6.388792411629086E-11	7.034323025945859E-11	7.445283740290766E-11	7.73876566258437E-11	8.207833781721294E-11	8.676824473504296E-11	
FineR140	-5.150685274854331E-10	-3.934603356169417E-10	-3.099807908525022E-10	-2.4818224667660456E-10	-1.9860021836054404E-10	-1.554106433488572E-10	-1.2447809034478384E-10	-9.707551870005946E-11	-7.487166057577327E-11	-5.3213602018771864E-11	-3.5090721582864E-11	-1.986360454280686E-11	-6.398787361242147E-12	7.643959654052558E-12	1.6434149565618166E-11	2.580279738805438E-11	3.636614167685065E-11	4.397565484447684E-11	5.042800072291539E-11	5.981762926112987E-11	6.450609955493827E-11	7.09603768631122E-11	7.564937583939037E-11	7.916299870262896E-11	8.50399442469781E-11	8.619961200543547E-11	
FineR150	-5.174561569410692E-10	-3.9178703686074483E-10	-3.0879277136342284E-10	-2.4644034968568826E-10	-1.9971129063792087E-10	-1.5599104188757836E-10	-1.2151466374083633E-10	-9.643460056120236E-11	-7.54374239986162E-11	-5.4349666371820244E-11	-3.4462099824473825E-11	-2.0434154258850205E-11	-6.970405768463963E-12	4.730335743502679E-12	1.5862471624857688E-11	2.52315340739569E-11	6.518628191791245E-11	4.398175641269915E-11	5.043494545335141E-11	5.6887966739693156E-11	6.392764330034461E-11	7.273587480574403E-11	7.508051932890371E-11	8.212617948853044E-11	8.447152004630318E-11	9.094011127565337E-11	
FineR160	-5.162698492366142E-10	-3.923256849478102E-10	-3.0883335896466123E-10	-2.4525114613545246E-10	-1.9743580201399748E-10	-1.571091555705812E-10	-1.2386536147581723E-10	-9.70117754219617E-11	-7.480045322163283E-11	-5.3156442586031707E-11	-3.5030780589443766E-11	-2.043627460501539E-11	-3.4359741407364773E-12	7.69239751821882E-12	1.7057834933276983E-11	2.6427291842091657E-11	3.5800758615233E-11	4.282888572468484E-11	4.986495632874997E-11	5.867015546379533E-11	6.335831768817531E-11	7.040099565338557E-11	7.744658898600428E-11	8.155776583041562E-11	8.390320120147505E-11	9.095280035663851E-11	
FineR170	-5.145526316749292E-10	-3.9113819948502604E-10	-3.0764482955799805E-10	-2.452829694638522E-10	-1.962454245145185E-10	-1.553579147142522E-10	-1.238808336984797E-10	-9.581926297584287E-11	-7.305120594536314E-11	-5.493110903579249E-11	-3.680827256653028E-11	-1.981165268342233E-11	-5.775645363326136E-12	5.353576898123952E-12	1.5910460612212447E-11	2.6431404492649608E-11	3.933962194179809E-11	4.814131052972952E-11	5.1061609476777245E-11	5.809283362788274E-11	6.513342747946849E-11	7.336418040889302E-11	7.805375758759492E-11	8.27439301145221E-11	8.568061901044403E-11	9.215038839427696E-11	
FineR180	-5.133659380207305E-10	-3.894094883090825E-10	-3.0946511601205535E-10	-2.440932571446431E-10	-1.9627048808610036E-10	-1.559376788304362E-10	-1.209186140788239E-10	-9.406124224377747E-11	-7.00866669439566E-11	-5.140773117113025E-11	-3.3275232896432413E-11	-1.9814898196974268E-11	-4.580422665043953E-12	4.7818152729916285E-12	1.825666493482434E-11	2.7627666849642514E-11	3.7002681211031466E-11	4.3455184941499445E-11	5.2835593551875134E-11	5.987566759512281E-11	6.4564408282328E-11	7.101998188873006E-11	7.513031216538741E-11	8.276688046980913E-11	8.687841326222735E-11	8.980436049404075E-11	
FineR190	-5.15681439740412E-10	-3.8946110468569337E-10	-3.070004580928442E-10	-2.441246918615747E-10	-1.9383647227963997E-10	-1.5474628551285969E-10	-1.2324898837480802E-10	-9.584248523727597E-11	-7.186628250236425E-11	-5.020601613331413E-11	-3.441368695645338E-11	-1.862001560935247E-11	-3.3839998434447637E-12	7.124408573594366E-12	2.0027207533571388E-11	2.939934038551502E-11	3.642678586021036E-11	4.522843533444029E-11	5.049267800634325E-11	5.929790578184927E-11	6.634011412336878E-11	7.102965916336908E-11	7.690685440480847E-11	8.218725412487419E-11	8.689062093014955E-11	8.981680796367892E-11	
FineR200	-5.144252717240552E-10	-3.887594517316017E-10	-3.088206197385091E-10	-2.411293328318573E-10	-1.938607406942125E-10	-1.5297198086803638E-10	-1.1795351638865133E-10	-9.640762452304923E-11	-7.066189482213593E-11	-5.1341199478834825E-11	-3.441912171133877E-11	-1.8618097152487624E-11	-3.459868767438103E-11	4.783398877855776E-12	1.5918382485862577E-11	2.8824037610939995E-11	3.643250295280021E-11	4.4652999773409176E-11	5.3456424691327234E-11	5.872103049054427E-11	6.576254703621596E-11	7.045159750436967E-11	7.691794581611042E-11	8.33738638103752E-11	8.865647877028391E-11	9.101525013988902E-11	
FineR210	-5.1323838488439E-10	-3.8654650044001474E-10	-3.053068325793268E-10	-2.4348771053823504E-10	-1.9619023978515613E-10	-1.5299420244726453E-10	-1.1851344660581922E-10	-9.167218395132647E-11	-6.890069708118436E-11	-5.254889735632234E-11	-3.265400959940066E-11	-1.685125660424882E-11	-3.3842556001351667E-12	8.320530997766307E-12	1.7112921138408648E-11	2.8250298806793367E-11	3.939136114475112E-11	4.6425306151008535E-11	5.2879254429671226E-11	6.049620035847847E-11	6.460634046961132E-11	7.34152903731803E-11	7.869440530673907E-11	8.161988240244455E-11	8.808891932498787E-11	9.101525013988902E-11	
FineR220	-5.127762384580943E-10	-3.870300916846332E-10	-3.053462548094084E-10	-2.4170959599633987E-10	-1.962147845034177E-10	-1.5124172450242048E-10	-1.2086414691733543E-10	-9.345554606214194E-11	-6.946805586896112E-11	-5.0785571694956944E-11	-3.322192301695028E-11	-1.74259008364023E-11	-1.6156337090331406E-12	1.1283962020394831E-11	2.0650648496449677E-11	2.944697627129257E-11	3.705353497353928E-11	4.81992046053953E-11	5.346461433044238E-11	5.7576000591036575E-11	6.873553604042876E-11	7.577107230457148E-11	7.81160489363881E-11	8.39883434620617E-11	8.986758210521591E-11	9.456011653218886E-11	
FineR230	-5.128476070416903E-10	-3.898925361592607E-10	-3.0585083496425823E-10	-2.4174413219665854E-10	-1.9499517957226944E-10	-1.5356965172962462E-10	-1.2031523314023706E-10	-9.577651855528857E-11	-6.947561507659475E-11	-4.7814718005051576E-11	-3.202140469354051E-11	-1.5086817166940535E-11	-5.723879784952468E-12	7.749275948379318E-12	1.8885696058296367E-11	2.944697627129257E-11	3.70550848003738E-11	4.527522487224852E-11	5.347162128125471E-11	5.992760407757273E-11	6.696931196077701E-11	7.34359882212701E-11	7.989358432372972E-11	8.458423497931798E-11	8.750962850582588E-11	9.221379904414773E-11	
FineR240	-5.138347093878068E-10	-3.876220203903279E-10	-3.0767115297658636E-10	-2.39965815783188E-10	-1.9269355635973989E-10	-1.5179855611758277E-10	-1.185448737176794E-10	-9.047874191395316E-11	-7.003222298264702E-11	-4.7814718005051576E-11	-3.14564150239236E-11	-4.623113542444676E-11	-4.528592197817233E-12	1.0712379912514844E-11	2.0654800950309522E-11	2.944888171102263E-11	4.001414085049844E-11	4.8206871646837736E-11	5.4662329952257826E-11	6.170199701779397E-11	6.815836511457707E-11	7.403578134359896E-11	7.812753996339308E-11	8.223885879923862E-11	9.105400606649334E-11	9.339988126633792E-11	
FineR250	-5.139063511895224E-10	-3.8816312560147145E-10	-3.064379474717555E-10	-2.4106813706940043E-10	-1.927174361399946E-10	-1.541524838995841E-10	-1.173518887703631E-10	-9.4582935386644E-11	-6.827077196433499E-11	-5.0717474304202956E-11	-3.4365078818728005E-11	-1.56562052925981E-11	-5.09865599305766E-12	8.371712662554018E-12	1.83132143499336E-11	2.8877138525183204E-11	3.8252409233391716E-11	4.704912509947652E-11	5.408506852058671E-11	6.112556990179097E-11	6.639346127035948E-11	7.285837380649182E-11	7.754841182094451E-11	8.578269456116269E-11	8.694242230150807E-11	8.986835324062316E-11	
MinCout:	4.247531023153649E-14	FineR:	30	FineC:	150

	FineC120	FineC121	FineC122	FineC123	FineC124	FineC125	FineC126	FineC127	FineC128	FineC129	FineC130	FineC131	FineC132	FineC133	FineC134	FineC135	FineC136	FineC137	FineC138	FineC139	FineC140	
FineR120	-8.215089883866934E-12	-4.680193957184136E-12	-6.4474989507241885E-12	-5.874870477351386E-12	-4.1073678827748185E-12	-1.7672709041827502E-12	5.731668033703282E-13	5.731668033703282E-13	2.34054642572354E-12	1.1463336067406563E-12	2.340205717806864E-12	5.254763116100757E-12	5.254763116100757E-12	6.44736129253297E-12	7.0218019410191734E-12	9.362619115106688E-12	9.362619115106688E-12	1.1705247880692987E-11	1.17035441052528E-11	1.17035441052528E-11	1.2277500738843043E-11	
FineR121	-1.0555199759180097E-11	-7.01996364378198E-12	-4.107994871775984E-12	-6.4475328231941275E-12	-4.107456476025191E-12	-2.340096978592068E-12	-1.7674684982301577E-12	-1.7672709041827502E-12	2.913910764350697E-12	2.34054642572354E-12	2.913910764350697E-12	4.68109285144708E-12	5.254457190074237E-12	7.0218019410191734E-12	8.788859861361745E-12	7.595363763107148E-12	9.362619115106688E-12	1.1129587471662557E-11	1.2896268719833329E-11	9.936378368851632E-12	1.4046297456831584E-11	
FineR122	-1.0555199759180097E-11	-8.215089883866934E-12	-4.6800849493979935E-12	-4.107994871775984E-12	-4.6800849493979935E-12	-4.107456476025191E-12	0.0	-1.7674684982301577E-12	5.731668033703282E-13	2.34054642572354E-12	4.68109285144708E-12	4.68109285144708E-12	6.4482401189311985E-12	4.10719031440817E-12	7.0218019410191734E-12	8.788859861361745E-12	9.362619115106688E-12	1.1705247880692987E-11	9.362619115106688E-12	1.3472197440921827E-11	1.3470296292713117E-11	
FineR123	-8.787520704454787E-12	-7.01996364378198E-12	-4.680766449276028E-12	-4.107994871775984E-12	-2.3404377145554937E-12	-1.7674684982301577E-12	-1.7674684982301577E-12	-1.7674684982301577E-12	1.767325311541629E-12	4.107728512819923E-12	4.107728512819923E-12	7.022824291093518E-12	6.4482401189311985E-12	7.596529420123743E-12	7.596529420123743E-12	9.363982192062635E-12	1.1131075141690465E-11	1.3472197440921827E-11	1.1705247880692987E-11	1.3472197440921827E-11	1.4046297456831584E-11	
FineR124	-7.592394464369832E-12	-7.01996364378198E-12	-7.01996364378198E-12	-5.252713422770796E-12	-4.107994871775984E-12	-5.731668033703282E-13	-1.7674684982301577E-12	1.767325311541629E-12	4.108266838493129E-12	4.107728512819923E-12	4.681774446337899E-12	4.107728512819923E-12	5.255282054182669E-12	6.4482401189311985E-12	7.596529420123743E-12	9.363982192062635E-12	1.0555755386393474E-11	1.0555755386393474E-11	1.289809742501207E-11	1.3472197440921827E-11	1.3472197440921827E-11	
FineR125	-7.0209859354301845E-12	-7.01996364378198E-12	-7.0209859354301845E-12	-4.68065729028679E-12	-4.107994871775984E-12	-5.729692163253362E-13	1.7675228915735171E-12	0.0	1.767325311541629E-12	2.3408329264128147E-12	4.681774446337899E-12	4.681774446337899E-12	6.4491191620632925E-12	8.790079593674807E-12	7.022661669506848E-12	8.790060592427799E-12	1.2899855624286382E-11	1.347409907435914E-11	1.347409907435914E-11	1.347409907435914E-11	1.4048342524431898E-11	
FineR126	-1.0556739385949224E-11	-8.788719759682043E-12	-7.0209859354301845E-12	-4.68065729028679E-12	-1.1459384326506724E-12	-2.340724064154172E-12	0.0	-5.729692163253362E-13	2.3408329264128147E-12	2.3408329264128147E-12	4.108266838493129E-12	4.681774446337899E-12	6.449154061662078E-12	8.216355463397573E-12	8.790060592427799E-12	7.022661669506848E-12	8.790060592427799E-12	1.1706682033914311E-11	1.1706682033914311E-11	1.347409907435914E-11	1.4048342524431898E-11	
FineR127	-9.361095904222114E-12	-5.825805064091442E-12	-5.825805064091442E-12	-5.2532311771891154E-12	-2.9131548021380574E-12	-4.108621992257422E-12	-2.340724064154172E-12	0.0	1.7675228915735171E-12	3.5350457831470343E-12	5.875646453817309E-12	5.875646453817309E-12	6.449154061662078E-12	6.449154061662078E-12	8.216355463397573E-12	1.113263603904792E-11	1.113263603904792E-11	8.790060592427799E-12	1.347409907435914E-11	1.5241246045025033E-11	1.5241246045025033E-11	
FineR128	-9.361095904222114E-12	-7.593198072706658E-12	-5.254056002220096E-12	-5.2532311771891154E-12	-4.68065729028679E-12	-2.340724064154172E-12	-5.731124100216575E-13	-2.340724064154172E-12	1.7676661300582808E-12	3.5350457831470343E-12	4.108355817986332E-12	4.682347654980829E-12	5.875646453817309E-12	5.875646453817309E-12	8.791280725267775E-12	8.791280725267775E-12	9.365129213068106E-12	1.2325880456097999E-11	1.289992645096439E-11	1.4667002594952274E-11	1.7585113366413634E-11	
FineR129	-7.594363755152742E-12	-7.02184453037832E-12	-7.593198072706658E-12	-3.4865535309535964E-12	-2.913638797553884E-12	-2.340724064154172E-12	-5.731124100216575E-13	2.961735748307737E-12	5.302138845972539E-12	4.1088943368603934E-12	5.876382472760019E-12	6.4500334016424205E-12	8.217432237467444E-12	6.4500334016424205E-12	8.791280725267775E-12	1.055871454073447E-11	1.055871454073447E-11	1.4092759144879516E-11	1.289992645096439E-11	1.347587468745605E-11	1.4050064130660699E-11	
FineR130	-7.594363755152742E-12	-5.254056002220096E-12	-5.254056002220096E-12	-1.7187442001991369E-12	-2.913638797553884E-12	-1.1458294667994246E-12	1.1946081441527025E-12	0.0	2.961735748307737E-12	4.1088943368603934E-12	4.1088943368603934E-12	6.4500334016424205E-12	6.4500334016424205E-12	6.4500334016424205E-12	9.984866052934139E-12	1.0558590044181528E-11	1.055871454073447E-11	1.2325880456097999E-11	1.1132563028534801E-11	1.347587468745605E-11	1.289992645096439E-11	
FineR131	-7.594363755152742E-12	-7.593198072706658E-12	-5.254056002220096E-12	-3.4865535309535964E-12	-2.913638797553884E-12	-1.1461158821916252E-12	-1.1458294667994246E-12	0.0	2.961735748307737E-12	4.1088943368603934E-12	4.1088943368603934E-12	5.876382472760019E-12	6.4500334016424205E-12	7.643959654052558E-12	9.984866052934139E-12	9.984866052934139E-12	1.055871454073447E-11	1.055871454073447E-11	1.29016852442514E-11	1.5819976176189356E-11	1.4667002594952274E-11	
FineR132	-9.363604278462093E-12	-7.0228674015138315E-12	-5.826268136467725E-12	-4.058820513563392E-12	-1.1461158821916252E-12	-5.730579410958126E-13	6.214413100149658E-13	1.7678637996749884E-12	2.962471943827691E-12	3.535441018739957E-12	4.1088943368603934E-12	5.8766148462303715E-12	4.1088943368603934E-12	5.8766148462303715E-12	9.411017565133808E-12	1.056013253188438E-11	9.984866052934139E-12	1.29016852442514E-11	1.29016852442514E-11	1.5243345611971232E-11	1.289992645096439E-11	
FineR133	-7.594363755152742E-12	-5.826268136467725E-12	-5.254573957798634E-12	-3.4861035085820545E-12	-2.9138706165694062E-12	-1.7187442001991369E-12	-5.730579410958126E-13	-1.1458294667994246E-12	6.214413100149658E-13	5.303161528109935E-12	3.5357275993499767E-12	5.8766148462303715E-12	6.450947801292134E-12	7.643959654052558E-12	8.792482045329422E-12	9.984866052934139E-12	9.984866052934139E-12	1.113412443030669E-11	1.113412443030669E-11	1.29016852442514E-11	1.5243345611971232E-11	
FineR134	-6.398787361242147E-12	-6.398787361242147E-12	-5.254573957798634E-12	-4.058820513563392E-12	-2.9138706165694062E-12	-1.1461158821916252E-12	1.1946081441527025E-12	2.962471943827691E-12	2.962471943827691E-12	3.5357275993499767E-12	3.5357275993499767E-12	7.070308725170157E-12	8.218687743565353E-12	8.218687743565353E-12	9.98614063346207E-12	1.056013253188438E-11	1.056013253188438E-11	1.232776389920787E-11	1.467112992092498E-11	1.466917315615687E-11	1.466917315615687E-11	
FineR135	-8.738644474335338E-12	-5.827236314588047E-12	-5.827236314588047E-12	-5.254573957798634E-12	-3.486730791418298E-12	-2.9138706165694062E-12	1.1946625542369103E-12	4.730157841578845E-12	5.303754494816608E-12	5.303754494816608E-12	5.877351148054371E-12	5.303754494816608E-12	7.644893441801283E-12	5.877351148054371E-12	9.98614063346207E-12	8.218687743565353E-12	1.056013253188438E-11	1.232776389920787E-11	1.409498371295222E-11	1.524546286435161E-11	1.409498371295222E-11	
FineR136	-7.595167695771847E-12	-5.827236314588047E-12	-5.827236314588047E-12	-5.827236314588047E-12	-4.682593694445933E-12	-2.9138706165694062E-12	6.218024102083831E-13	2.9627240613250607E-12	2.962471943827691E-12	3.5361230141763007E-12	3.5361230141763007E-12	3.5357275993499767E-12	5.877351148054371E-12	5.303161528109935E-12	9.986462528574656E-12	1.117978010236325E-11	1.175377200078556E-11	1.409498371295222E-11	1.232776389920787E-11	1.232776389920787E-11	1.701298760674084E-11	
FineR137	-9.93565156141298E-12	-7.595167695771847E-12	-5.827236314588047E-12	-2.291440699395568E-12	4.883322889610674E-14	6.218024102083831E-13	4.883322889610674E-14	1.1950036108207457E-12	2.9627240613250607E-12	5.303754494816608E-12	3.5361230141763007E-12	5.877351148054371E-12	3.5357275993499767E-12	9.412668226810586E-12	9.98614063346207E-12	9.986462528574656E-12	1.175377200078556E-11	9.986462528574656E-12	1.232776389920787E-11	1.6438457132715534E-11	1.409498371295222E-11	
FineR138	-8.167632182697124E-12	-6.39989867137746E-12	-7.595167695771847E-12	-3.486730791418298E-12	-1.7185805245466758E-12	-1.1460067930580138E-12	2.3893251084738206E-12	1.1950036108207457E-12	2.9627240613250607E-12	4.730157841578845E-12	5.304347574864136E-12	5.303754494816608E-12	8.838873925046518E-12	9.412668226810586E-12	9.412668226810586E-12	1.117978010236325E-11	1.2329379824235544E-11	1.4096796977498346E-11	1.2329379824235544E-11	1.6438457132715534E-11	1.8205999037292325E-11	
FineR139	-8.167632182697124E-12	-6.39989867137746E-12	-5.827236314588047E-12	-4.058942870872849E-12	-3.4862805140834364E-12	-1.7185805245466758E-12	6.218024102083831E-13	-1.1460067930580138E-12	1.1950036108207457E-12	2.9627240613250607E-12	3.5361230141763007E-12	5.303754494816608E-12	8.838873925046518E-12	7.64526931299324E-12	9.412668226810586E-12	9.412668226810586E-12	1.175377200078556E-11	1.175377200078556E-11	1.175377200078556E-11	1.467112992092498E-11	1.409498371295222E-11	
FineR140	-6.400307159105482E-12	-6.3991956000068795E-12	-4.631605227662262E-12	-3.4869079284410897E-12	-2.291440699395568E-12	-1.7190101895870206E-12	6.218024102083831E-13	6.218024102083831E-13	2.3900072216414915E-12	4.730785568413211E-12	4.730785568413211E-12	7.071672659755477E-12	7.071672659755477E-12	5.304184521264451E-12	9.987737585439185E-12	9.987737585439185E-12	1.2330996131403294E-11	1.3523073420227845E-11	1.529014948367435E-11	1.2329379824235544E-11	1.5864482427100983E-11	
MinCout:	0.0	FineR:	122	FineC:	126

