	CoarseC0	CoarseC10	CoarseC20	CoarseC30	CoarseC40	CoarseC50	CoarseC60	CoarseC70	CoarseC80	CoarseC90	CoarseC100	CoarseC110	CoarseC120	CoarseC130	CoarseC140	CoarseC150	CoarseC160	CoarseC170	CoarseC180	CoarseC190	CoarseC200	CoarseC210	CoarseC220	CoarseC230	CoarseC240	CoarseC250	
CoarseR0	-5.95906302346169E-10	-1.8706042723830477E-9	-1.8961281387781712E-9	-9.452747004693659E-10	-8.085011854873185E-10	-1.2663959099035353E-9	-5.46772427376977E-10	-5.300903978101603E-10	-5.290979014131816E-10	-2.5324393948033456E-10	1.0699344408130795E-10	-7.263562984251079E-12	-3.281197518271679E-11	6.001730921107844E-11	3.186286849576587E-10	5.2787417704037E-10	6.322904361593772E-10	2.828282755885296E-10	1.0582248438704543E-9	6.413650872226944E-10	7.924781233987315E-10	9.051185241457768E-10	1.4618292799938342E-9	7.97458959764719E-10	1.2643672065532912E-9	1.3011169758663365E-9	
CoarseR10	-1.3194892238558544E-9	-1.444225453288429E-9	-7.976946812121212E-10	-5.030781933922122E-10	-6.100598141175083E-10	-1.3139832805012753E-10	-8.184877199138632E-11	-2.1569821979683327E-10	2.1578288571298524E-10	7.683839375058055E-11	1.5055251486189224E-11	2.544422151600366E-10	3.7415503120025165E-10	8.851252329443109E-10	6.180643954012205E-10	9.212574377558259E-10	5.353795208290415E-10	1.071298972601896E-9	1.0645597079060413E-9	8.045973976481172E-10	1.4177303315178868E-9	9.183669198628772E-10	1.1700698390377333E-9	1.0500588304213192E-9	8.737818798284927E-10	8.71638629109645E-10	
CoarseR20	-1.5099544501069078E-9	-1.1138367549959942E-9	-7.911394581900009E-10	-7.226236761526456E-10	-2.1597322746413486E-11	-3.7022455851251257E-10	-3.383728119627468E-10	-1.304156236637068E-10	1.8933260912041719E-10	6.378839146527511E-10	4.945342452268572E-10	1.3718409285684103E-10	7.292383624813987E-10	1.0391963682282441E-9	3.1523467297009645E-10	1.1014368724526604E-9	7.756078924617552E-10	1.0964237998007783E-9	7.952356127992656E-10	1.1144334633040728E-9	9.50446490369719E-10	6.762546617593203E-10	9.46326031621879E-10	1.485706483089527E-9	1.1120988598634255E-9	1.4204133907626755E-9	
CoarseR30	-1.025089003263912E-9	-1.0496962258047554E-9	-4.727755855038616E-10	-2.506076488106175E-10	-4.799531429151604E-10	1.306165441145071E-10	3.0621846142749636E-10	7.001585463914056E-12	4.4459482049198235E-10	8.606872892057442E-11	4.84565350900507E-10	5.060347926796713E-10	4.340034834566046E-10	8.816576367364403E-10	5.264483345808397E-10	6.76865105545744E-10	9.094337512828931E-10	7.969918377728839E-10	1.2393515238237534E-9	9.132722534245219E-10	1.0944153207106373E-9	1.119127706961456E-9	1.1168824289705314E-9	9.365430568719228E-10	1.4784597789603015E-9	1.386219576068091E-9	
CoarseR40	-1.0663542665766588E-9	-7.101186259863352E-10	-5.42285480423546E-10	-3.954874230292451E-11	-3.6681818520920376E-10	1.097284893773091E-10	1.7288672886458276E-10	7.628057657028099E-11	6.608759679718157E-10	2.1321665230279876E-11	6.877617982127529E-10	9.006965512340054E-10	8.532956540472724E-10	8.171896437907621E-10	5.96775463307921E-10	7.963042031670634E-10	7.510359890473292E-10	9.042023141604355E-10	1.0942257981090169E-9	1.2506891434726616E-9	1.286429553600742E-9	9.396262418814872E-10	1.3797667613584394E-9	1.2341464960616376E-9	1.1359258304555547E-9	1.0444678678327051E-9	
CoarseR50	-8.509525264373238E-10	-7.799211034772362E-10	-5.584157909326905E-10	-1.5203041283894074E-10	1.892167678789073E-10	3.3525158381703927E-10	-2.4623952863502593E-11	2.891906091327108E-10	3.2178455070992875E-10	4.67732976390053E-10	5.405392752667745E-10	3.33155366421425E-10	7.323640448193137E-10	6.610219327980127E-10	1.0258365351195803E-9	1.1948846484794987E-9	9.291410080037487E-10	1.1223889246045487E-9	1.3028762809531754E-9	1.1334459742134424E-9	1.0659547729846604E-9	1.2670747844119823E-9	1.0742457332231098E-9	1.2523258681358316E-9	1.3827785577130514E-9	1.2749528471551165E-9	
CoarseR60	-1.0131038150510237E-9	-7.101542625643521E-10	-5.59233623457447E-10	-2.4821319987453097E-10	-1.2885193008183338E-10	-2.0855157017307737E-10	1.6999464844334076E-10	2.977717358458697E-10	2.2635344862657763E-10	4.5133835365871064E-10	5.318730543929704E-10	1.0643609708731454E-9	9.754444174173073E-10	9.254741803522266E-10	1.0834096426730308E-9	8.752794930910881E-10	1.20163125640658E-9	9.57179809493744E-10	1.1058761205994615E-9	1.5270178972253253E-9	1.1860336012524108E-9	1.1235090848356272E-9	1.5618815853431957E-9	1.5443548329083678E-9	1.3842489621294272E-9	1.2599951292904166E-9	
CoarseR70	-9.96300784427428E-10	-7.003311936706654E-10	-3.009638790211109E-10	-4.9510198929968606E-11	6.522580174212334E-11	1.786852077050781E-10	2.155006917026158E-10	3.8380197939001627E-10	3.43554455766473E-10	3.7394199944489757E-10	5.498713600964316E-10	8.689326265412506E-10	9.63726575763289E-10	8.353126402656981E-10	7.818208728660571E-10	1.2362038143450068E-9	8.384780333240735E-10	1.1856719963001962E-9	1.065690287611765E-9	1.1833894627938086E-9	1.4172166468094316E-9	1.1317599591529952E-9	1.4893765921161298E-9	1.629894085831194E-9	1.3834163481697492E-9	1.2956369295726527E-9	
CoarseR80	-8.102737850842498E-10	-7.94318274773868E-10	-2.7800041032978547E-10	-3.2160752261561965E-10	-2.419387259124328E-10	1.368200038577001E-10	5.649876514251023E-10	3.6848341176978264E-10	2.6524817754957954E-10	4.4556499180054545E-10	7.608281032028402E-10	6.060200482174427E-10	7.062052117895576E-10	8.149602201366572E-10	1.1030887591831292E-9	1.044738415709716E-9	1.1226390438032187E-9	1.1693160405989065E-9	1.0534706384503464E-9	1.1381959925488218E-9	1.3374439959473422E-9	1.2706325507404778E-9	1.6095128412917962E-9	1.4457296907377115E-9	1.1353504616497133E-9	1.7699404678491518E-9	
CoarseR90	-6.998485421020975E-10	-7.439838110242855E-10	-5.511996177489434E-10	1.0217228014225121E-9	-2.760443058773754E-10	9.105552896598097E-12	3.751346556621095E-10	1.534612465745629E-10	3.142301741693033E-10	3.1766857710063614E-10	4.0557902420979794E-10	4.034074854464021E-10	7.221848078589559E-10	1.0750802358282281E-9	9.145450203717844E-10	8.218175398444069E-10	1.0816225995887496E-9	1.132939937434323E-9	1.0740838691670725E-9	1.0117725426191788E-9	1.348315771571377E-9	1.1470650301367717E-9	1.2001604965878982E-9	1.4489269827094856E-9	1.185033433640879E-9	1.555331543852967E-9	
CoarseR100	-8.132356404785915E-10	-7.151489823749662E-10	-3.7436022567246646E-10	-1.457660640621287E-10	3.652296518568741E-11	-1.0780727646949049E-10	8.812178728931803E-11	2.229549123836654E-10	5.300883128032154E-10	5.4613853687892E-10	7.333761590356599E-10	9.5995040329691E-10	1.0711962020484876E-9	7.131446817083642E-10	1.038456355518249E-9	1.0068700095994344E-9	1.223628377635701E-9	1.095985554593947E-9	1.119265149140436E-9	9.563466520090648E-10	1.0860616688266715E-9	1.3424248910230128E-9	1.5533860566738645E-9	1.2247584465233737E-9	1.319321051478178E-9	1.1217133422459567E-9	
CoarseR110	-8.888083588829846E-10	-4.326170723603489E-10	-4.4497812820125775E-10	-2.6413246428850465E-10	1.1570902939316602E-10	2.1695478986440447E-10	2.4432114203481313E-10	3.035786110573314E-10	3.098411639326701E-10	1.0213322431645435E-9	4.5317507004422474E-10	6.950931222931997E-10	7.251229994839375E-10	7.580891760811261E-10	9.093714894034901E-10	1.0057440885977937E-9	8.25615361196749E-10	1.0663078181256815E-9	1.3941622325627305E-9	1.1867056141373318E-9	1.0461719054810628E-9	1.1512302176831154E-9	1.1342647968672574E-9	1.3932736188709606E-9	1.3322721634441746E-9	1.1486679979943367E-9	
CoarseR120	-7.485819428112642E-10	-4.3082524112729724E-10	-3.20829786547229E-10	-2.704006973697317E-10	-2.1168495119674034E-10	2.2364613748127593E-11	3.152863086937084E-10	1.7024299148655679E-10	4.4651962091339164E-10	7.029383060912861E-10	5.840154137602069E-10	6.095228169937694E-10	8.895796430411259E-10	7.700618771549147E-10	9.109102841126395E-10	8.906625975454127E-10	8.181372994922937E-10	1.1062698328194013E-9	9.702570113487337E-10	1.1929024889929328E-9	1.2511091540353698E-9	9.488311162115675E-10	1.7659038996614923E-9	1.4066804890942598E-9	1.4222525956079256E-9	1.2510145720145331E-9	
CoarseR130	-9.98805414550214E-10	-7.377702937149218E-10	-2.929775846553754E-10	-2.7511873707584876E-10	-3.2551955968540955E-10	1.0317782286594388E-10	1.039830053094738E-10	3.624712652414346E-10	6.137892914827826E-10	7.012496400878408E-10	7.508098953284015E-10	9.117609521313797E-10	1.0848978824106271E-9	6.59282945053086E-10	9.974634807909534E-10	9.76259232605421E-10	6.246740132148337E-10	1.0116724198314331E-9	1.099210804828325E-9	1.1073127563601748E-9	1.102039990205134E-9	1.2642580676086645E-9	1.198995029020195E-9	1.3763799210723818E-9	1.599019340399225E-9	1.2334906784255634E-9	
CoarseR140	-1.051737819781604E-9	-4.1779698482178834E-10	-3.3769878209399105E-10	-2.835590595878306E-10	6.887428467382436E-11	-1.2050719649474982E-10	1.517007248170615E-10	3.358061737424358E-10	4.325069311613651E-10	4.16694610948225E-10	8.319331512132061E-10	6.889124274711565E-10	7.932590523494649E-10	8.021742055291479E-10	1.1861091596431923E-9	9.55368215841152E-10	8.848275592876662E-10	1.170064746089828E-9	1.2157757315753865E-9	1.0420813538003957E-9	1.1107752306944076E-9	1.2135159768712888E-9	1.1890880285174713E-9	1.0440743095389499E-9	1.5091672720685367E-9	1.3074859984342616E-9	
CoarseR150	-1.0119746574321376E-9	-3.763671478416379E-10	-4.938384534159664E-10	-2.9483420992203884E-10	6.0470240616078E-11	2.7460371105391464E-10	2.890813859513701E-10	2.3694698890754755E-10	5.125209588532426E-10	6.056188947389854E-10	5.063800337195588E-10	1.1124103387741357E-9	8.518103879527112E-10	9.092563767528817E-10	7.620864480104596E-10	1.0530838259239918E-9	1.107318039071564E-9	8.839309499914551E-10	1.149964610775622E-9	1.4905835562771061E-9	1.4937606302994497E-9	1.3044624674872355E-9	1.327825443060709E-9	1.2994920671503226E-9	1.2741535614970804E-9	1.2017523746446133E-9	
CoarseR160	-7.218603905848808E-10	-9.857143767792527E-10	-8.417345810538636E-10	-3.2461912619926433E-10	-8.499921283077588E-11	-3.0719093089343577E-10	-9.737458245578134E-11	-1.1417468789239915E-10	9.293392016093951E-11	-1.2858613875736117E-10	1.1961822808769788E-10	8.529359976030581E-11	7.38900322792271E-11	1.6835358130493154E-10	2.308611538744881E-10	1.4175018794271193E-10	7.53492265578081E-10	6.542250321383164E-10	1.0801557538031699E-9	8.557030939950206E-10	3.160911198656801E-10	3.332812340289687E-10	4.5603579024956693E-10	7.915590461009842E-10	2.5378425387119026E-10	1.0372587360699712E-9	
CoarseR170	-1.2636755129610353E-9	-9.829397032861144E-10	-6.043083545482798E-10	-3.416054503594239E-10	-1.3788947923598172E-10	-8.728818851886245E-11	2.8809019475280573E-10	-5.431064433600479E-11	5.004131092302103E-10	1.2371765495847645E-10	-1.800734598008318E-10	9.886621095946066E-11	1.0467406308302121E-10	3.5404348617373156E-10	3.3744776259214256E-10	5.910486202824501E-10	1.6518386644019152E-10	1.8732959770875503E-10	6.540580821479419E-10	4.6501842419494267E-10	2.2572518343000754E-10	8.827825444723599E-10	7.230644329831644E-10	1.1850474480171382E-9	7.796980063994662E-10	7.253065457412094E-10	
CoarseR180	-4.5879642650895063E-10	-4.493752140083369E-10	2.8876034630598597E-10	-5.595004005329959E-10	-9.423234712897744E-10	-4.494473908643673E-10	-2.6291672049629976E-10	3.961057543876195E-10	-3.0482978731600567E-10	3.408446395568433E-10	2.0887638307764974E-10	3.8519554602782984E-10	-3.3720034509806476E-10	5.212003607120247E-10	4.3746821720632013E-10	5.760268168766876E-10	8.589928594719424E-10	5.794319001125866E-10	9.952544926897736E-10	3.1174050449826634E-10	6.235177791245275E-10	9.661684596372366E-10	1.053568983052483E-9	7.284216773227365E-10	1.086490955287354E-9	9.304168321878898E-10	
CoarseR190	-1.3473720652662505E-9	4.239760098076955E-10	2.7993915860517946E-10	-2.8291873551399684E-10	-3.378111628320849E-10	7.867286326312939E-11	1.6342786072769333E-10	-6.233669317399212E-11	-1.0217686209391175E-11	3.3616061201283854E-10	-6.56658297270891E-11	-2.608295697501102E-10	2.892217312933599E-11	1.1257265922021984E-10	2.2299321558136957E-10	8.806429468250029E-10	1.0105458871345327E-9	6.293484083689076E-10	9.43525332321432E-10	5.225305821318979E-10	4.1153329012714976E-10	7.452601247692208E-10	6.358395954394836E-10	9.959943986052392E-10	7.913232744884995E-10	9.276692129971868E-10	
CoarseR200	-5.324746170638541E-10	-6.651808095424204E-10	-5.561737879652161E-10	-2.1840729277523634E-10	-1.0905315217919977E-10	-6.341725722866263E-11	5.280646381849123E-10	1.5604289856794298E-10	-3.424691290361698E-10	-5.829502092413387E-10	4.081468631842565E-10	3.343304264658494E-10	6.988986217426276E-10	6.433180286989235E-10	3.278238487295129E-10	6.018713502092429E-10	6.469799565831768E-10	1.0218299537429143E-9	6.717047606887843E-10	9.3114230856631E-10	7.699577939695444E-10	1.5038053374554184E-9	5.130997618285317E-10	5.248675084703561E-10	1.4372277880414444E-9	5.828422608804561E-10	
CoarseR210	-2.215522382085699E-10	-5.057428142387648E-10	-2.2612269563652037E-10	3.692254490899456E-11	-1.3392004662780137E-11	-2.6175315743710507E-10	-8.059054066109783E-11	6.411243503246083E-10	3.676326931642634E-10	-3.3387832553353014E-11	1.720564874433748E-11	2.0265482566278943E-10	4.932195266286466E-10	8.736527497601881E-10	4.704665522397554E-10	6.60728750247809E-10	8.450321030872131E-10	8.810691602919423E-10	1.0916143246300973E-9	3.986282393753937E-10	9.263343096349602E-10	1.1083435741225355E-9	9.28361530305868E-10	9.554483136254162E-10	6.840526200985811E-10	8.243746554206278E-10	
CoarseR220	-5.002069083735686E-10	-7.715742947899788E-10	-8.44380334513688E-10	-1.9845920073727816E-10	-1.281813692092641E-10	8.611408389885449E-11	-4.821302715572114E-10	6.32844713463012E-10	6.84575432463878E-11	2.1164333340400973E-10	2.3899499598443094E-10	4.762147675808629E-10	7.770365809584759E-10	3.4798835003235434E-10	3.2871887367055106E-10	6.955746970743649E-10	1.3737446287468493E-9	8.174747150886055E-10	6.672980468496179E-10	8.684793536838234E-10	1.1113211813377052E-9	5.537502546096606E-10	6.989019605351788E-10	1.1272538480179028E-9	6.840039092905448E-10	1.2666506135534635E-9	
CoarseR230	-7.412482202449874E-10	-7.152177142673354E-11	-2.048951467330215E-10	-3.51290399793056E-10	9.032868455396196E-10	-7.77837441145204E-11	4.913029323939155E-10	9.559696300169318E-11	1.8922683379489816E-10	4.5067193466002375E-10	8.062890077562184E-10	3.1573399050312883E-10	6.7798523546002E-10	6.186069191377067E-10	5.909013192409091E-10	5.154385893147867E-10	5.119028315994723E-10	1.05873734388388E-9	6.028980276067031E-10	9.416862681985251E-10	6.894135394817669E-10	1.0153486296637384E-9	4.666605844064991E-10	6.658224009802722E-10	2.5049549451052746E-10	1.059666002014011E-9	
CoarseR240	-7.75562591843939E-10	-2.8870872615616413E-10	-9.479629179337817E-11	-2.951785254493973E-10	9.437360519499166E-11	-1.247654526732056E-10	1.003183284317506E-11	-1.6716629173409305E-10	6.236691943674764E-10	8.539348274984475E-10	2.4944260330660184E-10	1.7109384486570207E-10	4.576671707818871E-10	9.35148218916148E-10	7.126930293700551E-10	1.2189413356806662E-9	1.0407021587248509E-9	1.062538027677234E-9	5.589200932922978E-10	2.811349060804384E-10	1.2765644556073411E-9	6.837472562709591E-10	7.69047949321522E-10	7.632268974689951E-10	9.77931035873428E-10	1.2691926329837327E-9	
CoarseR250	-2.5234857925984716E-10	-4.665570792041444E-10	-4.578744077651319E-10	-7.260231862275991E-12	-1.7317633680056323E-10	4.503681655092507E-10	3.3321069547699843E-10	5.442928623028677E-10	-6.94292929223055E-11	2.882559082759034E-10	6.115128640810385E-10	3.2465192236903673E-10	9.820334763298192E-10	4.952978560153854E-10	3.139283806905157E-10	1.4155376603757674E-9	8.395129735208838E-10	1.1559917196878957E-9	5.137401413767099E-10	1.3425762423722782E-9	5.382016485838155E-10	1.1165689411716724E-9	9.61697193012303E-10	1.149159717841468E-9	1.2617621667591E-9	1.6248922974598676E-9	
MinCout:	7.001585463914056E-12	CoarseR:	30	CoarseC:	70

	CoarseC100	CoarseC101	CoarseC102	CoarseC103	CoarseC104	CoarseC105	CoarseC106	CoarseC107	CoarseC108	CoarseC109	CoarseC110	CoarseC111	CoarseC112	CoarseC113	CoarseC114	CoarseC115	CoarseC116	CoarseC117	CoarseC118	CoarseC119	CoarseC120	
CoarseR10	-1.6381479946223811E-9	-5.418434539334508E-10	-5.359317478684686E-10	-4.2695069393563326E-10	1.385499856226898E-10	-1.9632397156874963E-11	4.577634954493803E-12	-3.5906651787167234E-10	-5.2228596008183654E-11	-2.5652553873501228E-11	-2.3516601528083966E-10	1.0547696946355638E-10	-2.5954789860069247E-10	-4.321551445108308E-10	-4.0253888219237124E-10	-1.362594000078682E-10	-2.862843569858982E-10	-1.5895256157339178E-10	-2.3267758536839974E-10	-4.1940748537760874E-10	-4.251547309562775E-10	
CoarseR11	-5.548586791294259E-10	-3.902676014071354E-10	1.8152236896147593E-11	-4.30150920555545E-10	-2.065774232967914E-10	-3.9006886547046237E-10	-3.49596848229428E-10	-4.449452683233594E-10	2.2513064719959418E-10	-2.17706082328053E-10	-3.631205680931118E-10	1.0986283908967779E-10	-4.763089952754572E-10	-2.433897528508932E-11	1.67990546991095E-10	-4.461602648872766E-10	1.2025312704142164E-10	-2.7838857326349E-10	-4.887221276284487E-10	-8.246033827195533E-11	-7.38771290173095E-12	
CoarseR12	-5.477233219702278E-10	-4.6443118493463497E-10	-1.783434742196023E-10	-4.635160157717217E-10	-6.277465720469682E-10	-1.8116350217340264E-10	-2.2681250188146696E-10	-1.8236664423467015E-10	-5.264027957133472E-10	-2.5930704609152564E-10	2.423313268647543E-10	5.638482878995089E-11	-7.356118826435747E-11	1.9039239431927246E-11	1.3960389793982507E-11	-8.260107137514195E-11	-3.688247700711356E-10	-3.402226688371437E-10	-2.8626481986608175E-10	-1.7779720817268128E-10	-4.391641230115652E-10	
CoarseR13	-3.2956338547374084E-10	-1.50968804315833E-10	-5.67580674904873E-10	-2.0897703827075311E-10	-5.155601847974362E-10	-4.934534506177741E-10	-3.895215207857759E-10	8.861353171040503E-11	-2.859765114518065E-10	-4.646872007628271E-10	-5.049819187803112E-10	-7.083275342629847E-13	-9.17527208483752E-11	-2.267575085798975E-10	-4.434795385385093E-10	-2.2340606513821956E-10	-1.079340187052748E-10	4.448900269868899E-11	-1.7600123850874515E-10	-4.6269013116969557E-10	-3.440401627112801E-10	
CoarseR14	-5.0760028934013E-10	-2.0256942059270456E-10	-2.6049456131814994E-10	-4.300091623292477E-10	-3.015378715429942E-10	-2.5846688371234016E-10	-5.172482665622662E-10	-6.378157724081968E-10	-2.3837285806863304E-10	-9.340528037983435E-11	-4.130298496640247E-10	-4.2254341476070806E-10	-5.23137959174029E-10	-5.81529076812135E-10	-6.308200718032541E-10	-8.307430231760288E-11	-5.635889517301385E-10	1.6032959397411055E-10	-5.423479187302229E-10	-5.972571395714679E-11	-5.980062488405798E-11	
CoarseR15	-4.3418147517107036E-10	-4.772907400556606E-10	-5.851812094518959E-10	-2.7667966792570534E-10	-5.787017145632128E-10	-2.472157062799004E-10	-4.779610882354793E-10	-3.7060894467828793E-10	-2.7361397775554777E-10	2.467035950987768E-10	-3.444923355890808E-10	8.871008762313205E-11	-2.5984882967686153E-10	-5.896480807036586E-10	-2.533274780680178E-10	1.4100284296612837E-10	-2.6579220364297915E-10	-3.020396145790093E-10	-8.056925332826205E-11	-3.1349046806108187E-10	-1.1585683177874574E-10	
CoarseR16	-1.037380532969152E-10	-6.209690640273554E-10	1.183948556554981E-12	-4.869277804945865E-10	-2.414484865660741E-10	-5.493453531957358E-10	1.452638548937588E-10	-3.5986371543485246E-10	-5.717048516633692E-10	-6.576311014687556E-10	-3.9990309127613925E-10	-2.8615805116850074E-10	-3.1118312257373745E-12	-5.087178128929859E-10	-4.717301950856935E-10	-9.669869752104743E-12	-4.9765347367257076E-12	-2.5326716288681227E-10	-3.45841295596208E-10	-2.8265039863784164E-10	-2.4702456577978183E-10	
CoarseR17	-2.4631106796120013E-10	-4.4189978311581545E-10	-2.6628279201770326E-10	-5.440414180883437E-10	-3.545495231956971E-10	-3.064544786607278E-10	-2.336043693937688E-10	-4.5784191870715394E-10	1.0866843831203706E-11	-3.2957125579889575E-11	-3.8248817308854073E-10	-2.4517413528559673E-10	4.0727043248022317E-11	-9.614809130275726E-11	-2.7112500790450167E-10	-1.5834035737851463E-10	-2.4772478554496495E-10	-2.2277128159419137E-10	-1.7945341298251856E-10	-1.551891030560518E-10	-6.897136748190816E-11	
CoarseR18	-1.766737856071213E-10	-3.1506461067465384E-10	-6.056666144298706E-10	-4.0609115710239633E-10	-4.972152590418332E-10	-6.745862542788299E-10	-2.1792069085737543E-10	-6.689903503969288E-10	-4.771098168015179E-10	-2.897487853543484E-10	-5.119866003396586E-10	-9.789389445426699E-11	-2.576133949430365E-10	1.36467591951654E-10	-2.096773680031948E-10	-2.399166826750042E-10	-5.438500291177966E-10	-1.117573955897362E-10	-2.8703963093036693E-10	-2.8934451923370432E-12	-7.643830481710206E-10	
CoarseR19	-7.129957651290066E-10	-7.26697230077424E-10	-3.2387149941206287E-10	-3.6724971837169273E-10	-5.651261768276921E-10	-2.0308851936001022E-10	-4.1692872119305036E-10	-3.567967326456588E-10	-5.925692508367316E-10	-6.761350769794749E-10	-3.308923017005053E-10	-5.35097061379512E-10	-4.0108989517294827E-10	-4.3558080815093493E-10	-3.028463335608913E-10	-4.110854735879045E-10	-6.82808804597843E-10	-4.529752745873209E-11	-3.473702301173219E-11	-1.9948970194050643E-10	-4.6171675324108336E-11	
CoarseR20	-5.260887156446754E-10	8.521514265956056E-11	-3.615556041814038E-10	-4.2528322514541675E-10	-4.696951299661457E-10	-5.207604118190992E-10	-5.549990586533697E-10	-4.532758968559194E-10	-2.425696888852708E-10	2.496243090640744E-11	7.176053657184845E-11	-3.2998832287004466E-10	-2.2662242297029416E-10	-5.044978042142082E-10	-3.478701371667136E-10	-2.818674029662851E-10	-8.322512778916535E-10	2.3929678613983295E-10	-3.3706917405138126E-10	-4.871154617756104E-11	-5.131033606595901E-10	
CoarseR21	-4.251550313011683E-10	-7.609113164836348E-10	-2.2961014278021104E-10	-5.567056262291066E-10	-2.501505022184842E-10	-2.737035432185574E-10	-2.3004238291602985E-10	-4.814796695978935E-10	-6.469800875759605E-10	-5.249959598428648E-10	-6.381259717090814E-10	-6.012223078045096E-10	-4.861110245026281E-10	-4.347904971390737E-10	-4.5128576534570143E-10	-6.434885049244625E-10	-2.4832836364399653E-10	-3.710993255277048E-10	-6.876150023729114E-10	-5.154471793935037E-10	-3.9641076918385E-10	
CoarseR22	-3.435430306194319E-10	-6.330076197834847E-10	-5.134791270303847E-10	-6.65639215730037E-10	-3.725032194942666E-10	-4.3008930816828684E-10	-2.7209880188373226E-10	-5.320580597566255E-10	-1.29384054322684E-10	-2.116500367793551E-10	-5.699055440168917E-10	-2.7946558829308217E-10	-4.06584239421241E-10	-5.405565003505827E-10	-6.904713702597745E-10	-7.28756593181285E-11	-4.243022873823027E-10	-3.428987167917802E-10	-3.4521351076127403E-10	-8.215414298669206E-10	-1.574154377869827E-10	
CoarseR23	-2.310058418986605E-10	-3.0303315331467935E-10	-4.476191494095335E-10	-2.332776850817895E-10	-1.7572391467787853E-10	-5.192244181523717E-10	-3.6014811062379437E-10	-5.528966027057596E-10	-5.970121910779019E-10	-5.439076541319761E-10	-3.370002018949572E-10	-7.315061824042117E-10	-4.280627068699552E-10	-7.519130150186265E-10	-4.146859586612591E-11	-6.800405210007102E-11	-3.7069391346642044E-10	-2.6304236486233796E-10	6.414992130727666E-12	-4.45888528050612E-10	-5.190462562404302E-11	
CoarseR24	-4.291129926017318E-10	-6.048313372403197E-10	-9.835381930092275E-10	-8.767743620971337E-10	-5.794548654277909E-10	-6.296093183278514E-10	-4.88249815440872E-10	-5.424965672056884E-10	-2.5251156895662705E-10	-5.358323798909038E-10	-2.4786687354636964E-10	-3.2343780517512785E-10	-2.5873498858909906E-10	-1.171357934488016E-10	5.5531858132943965E-11	-2.4958925268496373E-10	-2.4088317684665655E-10	-1.554619808438656E-10	-2.499320272616493E-10	-3.2916063578981186E-10	-1.6618217304976122E-10	
CoarseR25	-6.924885075338389E-10	-4.762760555122306E-10	-3.961717955692193E-10	-5.023100824927783E-10	-5.531081480001699E-10	-5.975908386489256E-10	-4.0241734302859694E-10	-5.387703562034148E-10	-4.527902179477254E-10	-4.310089910701349E-10	-3.0546225527183684E-10	-3.5555632663170023E-10	-1.9966012339207912E-10	-2.9239505322375835E-10	-4.072398925781982E-10	-5.451974455764994E-10	-8.246635593280976E-11	-7.453673092402874E-10	-2.0092857099566465E-10	-4.0261170227818185E-10	-8.027694738486466E-10	
CoarseR26	-4.488658631863142E-10	-4.203918702231102E-10	-5.808625096064028E-10	-4.406143734232508E-10	-7.025070927018332E-10	-4.93166308122662E-10	-7.718509586065387E-10	-5.703171015810083E-10	-4.819683182664018E-10	-1.7720881721831492E-10	-6.769512992133141E-10	-5.693709333325041E-10	-3.629961926934676E-10	-4.4823815753235285E-10	-3.6548319234408924E-10	-2.9575978441524844E-10	-3.442672596249962E-10	1.756619369454714E-10	-8.758987752537826E-11	-6.2004312496760146E-12	-4.94851411863174E-10	
CoarseR27	-4.4298476526428005E-10	-4.050856714152015E-10	-4.111709079716514E-10	-7.140330486963558E-10	-2.1576906805741086E-10	-9.878211619199476E-10	-4.684440708072528E-10	-4.904882981659237E-10	-4.04107483231289E-10	-3.706982506912481E-10	-5.619965720631801E-10	-4.977004736181484E-10	-7.178490158941431E-10	-4.798180515050099E-10	-9.217536495869884E-10	-3.6713516956499427E-10	-6.113120288761334E-10	-5.028555674519981E-10	-4.371057025422481E-10	-6.173338843850901E-10	-2.0979581997672017E-10	
CoarseR28	-6.384426901636093E-10	-4.5740121305771403E-10	-5.671543260547043E-10	-8.345687269145722E-10	-5.56990874954125E-10	-2.376638978620436E-10	-7.625798606013741E-10	-6.048696183751156E-10	-6.615678457367055E-10	-2.0093785199290176E-10	-8.278212493754758E-11	-6.29698537891983E-10	-3.4170347384525125E-10	-3.313191020391386E-10	-4.920750836698282E-10	-3.7189621073898967E-10	-3.7710544255911004E-10	-7.173408258893383E-10	-2.6792032722126914E-10	-2.9933949881238647E-10	-5.559059133727636E-10	
CoarseR29	-8.404435266835185E-10	-2.0006609050985843E-10	-1.0201153064416254E-10	-5.873532758679103E-10	-7.331855485242404E-10	-6.209766166220155E-10	-4.233929370646453E-10	-4.1072493434583255E-10	-8.200178286123585E-10	-4.3294731822672675E-10	-5.845100973426582E-10	-6.017006559891169E-10	-2.9267644952612014E-10	-8.054034888556408E-10	-5.59818910720119E-10	2.6947984134006505E-10	-2.070790651844792E-11	-5.27362208939587E-10	-5.546484005998564E-10	-3.113016339078673E-10	-1.5417031063140126E-10	
CoarseR30	-4.957019656507638E-10	-1.0421293480208966E-9	-8.057322640491674E-10	-3.767502126930747E-10	-3.4166485118341673E-10	-3.969657658002149E-10	-2.7046092143576296E-10	-6.39296750132596E-10	-5.81238875712322E-10	-3.536299304985641E-10	-4.2137562289847414E-10	-2.9502302196736667E-10	-3.7074967351729725E-10	-5.335716478958082E-10	-3.7885317300390484E-10	-3.544662399489232E-10	-4.0958092655520784E-10	-1.0843879045058752E-10	-9.589391413378305E-11	-4.821497387264396E-10	-3.707998785921485E-10	
MinCout:	-7.083275342629847E-13	CoarseR:	13	CoarseC:	111

	FineC0	FineC10	FineC20	FineC30	FineC40	FineC50	FineC60	FineC70	FineC80	FineC90	FineC100	FineC110	FineC120	FineC130	FineC140	FineC150	FineC160	FineC170	FineC180	FineC190	FineC200	FineC210	FineC220	FineC230	FineC240	FineC250	
FineR0	-1.5006489183814157E-9	-1.5931906398279499E-9	-1.5066532191846756E-9	-1.1760269643912351E-9	-1.1397410429801393E-9	-1.1334678155839013E-9	-1.1094090780060119E-9	-1.5238732098776474E-9	-6.918265105227759E-10	-1.160402563690013E-9	-1.135329537110276E-9	-1.03390181538121E-9	-1.2723149156659873E-9	-1.2988131294143876E-9	-1.1047340404035853E-9	-1.0829050668840686E-9	-9.845475434654472E-10	-9.8979170525663E-10	-7.324989899510598E-10	-1.1058779523503798E-9	-1.3841112388049408E-9	-1.0075515753566087E-9	-1.0027142651068122E-9	-8.208221974389671E-10	-1.5356149871230048E-9	-1.2319756509527663E-9	
FineR10	-1.0145368913469703E-9	-1.0707293062927133E-9	-1.0964932285947762E-9	-1.3202298618236323E-9	-6.036528355621939E-10	-1.14634787525359E-9	-8.087418399948235E-10	-1.0074324461912914E-9	-1.102762165560301E-9	-8.254645567292076E-10	-5.060120234082146E-10	-6.236057318672017E-10	-8.172471278969308E-10	-9.653962311312242E-10	-1.0950443951455127E-9	-9.281503338498164E-10	-7.817643561162386E-10	-8.192404085931527E-10	-8.536996398934912E-10	-4.1736334071668907E-10	-4.083500501903949E-10	-9.784937013737645E-10	-6.125224759199016E-10	-6.550247547592699E-10	-7.956919078026792E-10	-6.498266679502193E-10	
FineR20	-1.194799385796921E-9	-1.0780489698922458E-9	-7.594670890393412E-10	-9.397172084223425E-10	-8.036863625185286E-10	-8.051857746961235E-10	-8.350428170766182E-10	-6.356585033086366E-10	-1.0230639024301973E-9	-1.0784520158416597E-9	-5.01697364967209E-10	-6.878610244461935E-10	-7.187779499280047E-10	-5.275522470960434E-10	-5.990326762273195E-10	-8.867976865348E-10	-7.487837634183219E-10	-9.880762543512891E-10	-3.138671302322118E-10	-6.667820379861368E-10	-5.58246103094071E-10	-6.436784520888979E-10	-6.746586816650705E-10	-2.0757533581870452E-10	-1.039680306603107E-9	-3.9795329985164684E-10	
FineR30	-1.2139139922286876E-9	-1.0876908024783018E-9	-9.700184169722192E-10	-1.0130901558821112E-9	-1.4001643214356109E-9	-8.301726433829234E-10	-8.349087549974133E-10	-9.89837759302646E-10	-9.720147821376333E-10	-3.3223092678216454E-10	-1.0147761557101619E-9	-8.998058153243904E-10	-9.751636986948063E-10	-6.734483426539844E-10	-1.1677642666285362E-9	-7.221463884422829E-10	-7.953531715017733E-10	-7.865401112571847E-10	-8.853718705879741E-10	-6.698526677138353E-10	-1.060105561211994E-9	-8.129971831643216E-10	-6.174611501780031E-10	-2.5309293380252924E-10	-2.6140872718328283E-10	-4.948836751022891E-10	
FineR40	-1.2421051753417973E-9	-1.255756894992929E-9	-1.2088837744286997E-9	-6.215056572889776E-10	-1.2199654546215756E-9	-6.594435265802396E-10	-7.155694704709596E-10	-1.0776829334594724E-9	-7.565016194481448E-10	-1.0443728201159922E-9	-8.509730739363255E-10	-1.0007106681632777E-9	-6.63493688684131E-10	-8.398132795006225E-10	-5.474137265800024E-10	-5.919738167147782E-10	-7.516578819713679E-10	-9.975307597790673E-10	-4.732769150241104E-10	-8.683494342943407E-10	-5.738086091323334E-10	-5.193650568167163E-10	-7.15847386081065E-10	-7.218385170621227E-10	-8.673147215187364E-10	-4.959514177439253E-10	
FineR50	-9.761843939736644E-10	-1.0085670600468444E-9	-9.89780475161903E-10	-1.0723648120107542E-9	-6.179525988218849E-10	-6.592827405884672E-10	-4.5462601176305914E-10	-7.970678391246884E-10	-6.95184838714793E-10	-7.560615495310738E-10	-6.071608814989902E-10	-8.619619722556433E-10	-6.08526741172513E-10	-6.523989738712827E-10	-7.0136652421725E-10	-7.295104515843331E-10	-6.266407945724605E-10	-7.551759402728172E-10	-7.85841919375896E-10	-6.014997773374963E-10	-3.4751272372028414E-10	-7.346361596336436E-10	-2.8763766765837283E-10	-5.253082635934241E-10	-6.817180406683827E-10	-8.007897727455638E-10	
FineR60	-1.1132024394136693E-9	-1.2644452670179357E-9	-8.289017021944494E-10	-1.1901334739035258E-9	-6.920082468869906E-10	-7.913911230447195E-10	-6.63652579579491E-10	-8.487581442423105E-10	-9.175905804491737E-10	-8.429757816433995E-10	-1.0370302219642163E-9	-8.108398288483842E-10	-6.49290957658463E-10	-1.0167983649516741E-9	-5.125648730058709E-10	-8.37266096839754E-10	-7.188667294725345E-10	-5.792815322730434E-10	-1.1893882763663662E-10	-8.14516273397244E-10	-8.432320884457651E-10	-1.0653465966809765E-9	-8.086310104481247E-10	-7.632541836637582E-10	-4.5388304719045373E-10	-7.745793596805473E-10	
FineR70	-9.36468169196091E-10	-7.935673894873142E-10	-7.54959060863864E-10	-1.0726222332900366E-9	-1.2652550141836261E-9	-9.658400640334325E-10	-1.2432905977111817E-9	-5.115189585789102E-10	-9.207628874695135E-10	-7.518622436889425E-10	-5.684181957389102E-10	-7.213770892170651E-10	-6.208071767375012E-10	-1.2201428579038695E-9	-5.266661498875861E-10	-6.807580665605609E-10	-7.342455768777567E-10	-8.596769143875762E-10	-1.0055469962063177E-9	-1.027471229117495E-9	-4.0624187131063355E-10	-5.620988980435847E-10	-5.771926270790896E-10	-6.314519990424837E-10	-4.2223187257547797E-10	-6.607489858177309E-10	
FineR80	-9.511034435254018E-10	-6.104069349327667E-10	-1.2316995082715708E-9	-7.61414126156664E-10	-8.51625403611007E-10	-1.031731437038551E-9	-6.586706858360267E-10	-5.160862826026593E-10	-7.407725581685603E-10	-6.749297109379014E-10	-5.982672694842325E-10	-5.330247687207531E-10	-4.055575887172845E-10	-9.781829700891699E-10	-7.620703960175555E-10	-6.065924415102673E-10	-7.938262789285537E-10	-5.842536861265519E-10	-6.455373824505447E-10	-5.903426090224282E-10	-4.391402138353817E-10	-7.988882667221296E-10	-8.866455628402773E-10	-3.315623834303977E-10	-3.477647874616561E-10	-6.695859412035064E-10	
FineR90	-1.0195024115744147E-9	-1.021311334380676E-9	-9.839674664961696E-10	-8.875898868886294E-10	-7.789389110930409E-10	-1.147563476430097E-9	-5.169599337103786E-10	-1.1001391053945409E-9	-7.029932042839188E-10	-7.493654488642492E-10	-7.433022158657158E-10	-4.370253481305765E-10	-6.369125143148049E-10	-1.0185179757081343E-9	-9.661215999403192E-10	-3.807520517351094E-10	-7.828971581410035E-10	-7.999066663279163E-10	-5.045845126756091E-10	-5.94312325698718E-10	-4.917650577033648E-10	-3.3100423510300124E-10	-8.264702159055219E-10	-6.882381024154558E-10	-1.0231566795501648E-9	-3.9453056728899277E-10	
FineR100	-8.791734053566487E-10	-8.175635952752936E-10	-2.7398629154708243E-10	-1.3695666959637052E-9	-1.0050456520058853E-9	-7.143650033145031E-10	-7.514898385411197E-10	-8.970446255503479E-10	-7.439122652911149E-10	-7.146049786746355E-10	-1.0148168454506953E-9	-8.230939346406794E-10	-7.28609306507512E-10	-7.998323770258583E-10	-6.527933295503059E-10	-9.228553678020802E-10	-7.00448844825155E-10	-6.445434372298226E-10	-6.10683599078038E-10	-1.0505070317933385E-9	-4.789427317683223E-10	-5.651015975933867E-10	-3.4206160378910097E-10	-6.899788573098354E-10	-7.305177483772857E-10	-8.526146014111318E-10	
FineR110	-1.0301389622699195E-9	-1.179323073972332E-9	-1.177284520997976E-9	-1.0268517909703277E-9	-1.2629728452326756E-9	-9.222148953703417E-10	-1.00193820383775E-9	-1.120501940891052E-9	-7.890446934497276E-10	-8.087966705766002E-10	-6.245427058637968E-10	-6.307869883693362E-10	-7.792807132163131E-10	-3.8365000665950824E-10	-6.626337573655925E-10	-8.30925903989177E-10	-9.307036136865832E-10	-6.848784697011942E-10	-8.495704444053818E-10	-4.0101206127486267E-10	-4.340825497647714E-10	-6.844496310982133E-10	-7.89145533236888E-10	-6.652469627626183E-10	-5.3586177488039E-10	-7.060490709580792E-10	
FineR120	-1.1006005265741364E-9	-9.598584749027386E-10	-1.1300327160784897E-9	-1.131442915599314E-9	-1.076453896022558E-9	-5.75509601176546E-10	-1.1339087560289287E-9	-9.512482945884478E-10	-6.747281965737229E-10	-6.019217102749527E-10	-7.440770587206434E-10	-9.303055776742175E-10	-6.92901715385021E-10	-6.176801710448141E-10	-7.714366237056493E-10	-7.808466443408322E-10	-7.843428128070493E-10	-7.106962081376798E-10	-6.901498093519777E-10	-6.437227150202705E-10	-4.0013630653378275E-10	-8.639413046198786E-10	-7.720484562074906E-10	-9.32013935356598E-10	-8.643375333709685E-10	-9.464888473884233E-10	
FineR130	-1.1584414763466296E-9	-1.1247842843013276E-9	-7.422635546567912E-10	-1.0539364269454253E-9	-1.1158645377068364E-9	-9.080246601705301E-10	-5.862085089518704E-10	-6.970270768809146E-10	-1.0688610117459106E-9	-8.619216785852348E-10	-6.294910488427906E-10	-1.0290160400426773E-9	-6.085673331751337E-10	-8.561555487045812E-10	-1.3832036297892172E-9	-4.1852842903406494E-10	-7.96469016677791E-10	-8.658955402647511E-10	-6.183686342540989E-10	-7.961097811350261E-10	-8.072042289892413E-10	-9.733562327114486E-10	-6.423697795910036E-10	-7.109977936402454E-10	-8.51630621784389E-10	-9.574255365161128E-10	
FineR140	-1.2009862418175673E-9	-9.613376331902918E-10	-1.0875537317824122E-9	-1.1889622014017102E-9	-8.396269584100193E-10	-8.921748162152628E-10	-8.590546620118239E-10	-5.616517302357022E-10	-9.010901471627227E-10	-8.870947617895228E-10	-7.355436096393652E-10	-9.494880979353245E-10	-4.481434995352818E-10	-1.0830689037551137E-9	-1.1212920237126408E-9	-5.111472522046009E-10	-7.231355346113646E-10	-9.280434097161836E-10	-3.5096360353132457E-10	-8.303992181965987E-10	-6.111179170565123E-10	-4.1083496475321434E-10	-6.82251156504061E-10	-8.014939708363891E-10	-6.26711915066645E-10	-7.178934190989202E-10	
FineR150	-1.2334130533322373E-9	-1.1450808520434744E-9	-9.60753938007344E-10	-7.397340837742231E-10	-9.742791365489874E-10	-4.946634140407957E-10	-1.1058359426414498E-9	-8.986810805800207E-10	-8.186327347379185E-10	-6.864209216031812E-10	-7.379097618577225E-10	-9.912845601557064E-10	-6.370097805611333E-10	-8.192795759941231E-10	-1.0070241890424418E-9	-1.0016823346861192E-9	-1.088010534374725E-9	-7.28814049839516E-10	-6.128690149454206E-10	-8.347744377240464E-10	-8.376977164473031E-10	-9.104828344547385E-10	-9.566016283916935E-10	-1.027850004565198E-9	-4.698000861725463E-10	-7.427906619995504E-10	
FineR160	-1.4678607701132485E-9	-8.648848051829702E-10	-1.1461360180019994E-9	-1.14639830832024E-9	-1.0327045574125941E-9	-7.402001186169107E-10	-1.2873423426116078E-9	-4.4848495719047025E-10	-1.0566110410139545E-9	-8.826115470219866E-10	-7.132494604477494E-10	-7.832139688865816E-10	-6.661067409651164E-10	-1.2569565223056632E-9	-8.388529439440121E-10	-8.372672650984884E-10	-1.0196353971021324E-9	-5.13270348105783E-10	-5.752685710610378E-10	-8.940739109909153E-10	-9.906159040309278E-10	-4.119818023281473E-10	-7.999051088124018E-10	-1.0030417903366772E-9	-1.0251105721305344E-9	-8.155237847043263E-10	
FineR170	-1.1592289659718836E-9	-1.0852297625128181E-9	-1.2545000530257117E-9	-1.2727628842991627E-9	-9.969570465120084E-10	-8.427511945916304E-10	-8.057386992275822E-10	-9.261408048868579E-10	-9.231976788997738E-10	-9.255559981925286E-10	-7.609329241425726E-10	-9.95520325052674E-10	-8.896405141427809E-10	-1.1533403121346614E-9	-9.613909365434494E-10	-8.700917096056908E-10	-8.672734545056961E-10	-1.1423193075729738E-9	-9.238818230942328E-10	-9.395644475027504E-10	-7.997550543177363E-10	-7.904401193096499E-10	-9.605336249342022E-10	-1.042922550934654E-9	-7.941902682939273E-10	-1.006350331292537E-9	
FineR180	-1.4185153835987298E-9	-1.150660813935186E-9	-1.2216809331077755E-9	-9.30156008068205E-10	-1.0601976242352182E-9	-1.0517192954537191E-9	-1.0142336227979896E-9	-9.23586624819249E-10	-1.5098628686805685E-9	-1.0522498569732795E-9	-1.0378807153419773E-9	-6.710098386552509E-10	-9.978401169032023E-10	-5.740907514801281E-10	-7.46659976923527E-10	-7.933300569157078E-10	-9.1820070875545E-10	-5.488639287216458E-10	-1.2969903659797588E-9	-8.129825740769451E-10	-7.510699294376612E-10	-6.761900863221427E-10	-1.1526832959291584E-9	-7.757550229198048E-10	-1.0670542094327523E-9	-1.045188195136675E-9	
FineR190	-9.477691232722975E-10	-1.2115972356948135E-9	-1.2388521120629246E-9	-1.3138051489547288E-9	-1.0936452063130813E-9	-8.866500179307793E-10	-1.1017213321670686E-9	-1.0581144907106513E-9	-1.1344990647336582E-9	-1.112319343745157E-9	-9.139766092116276E-10	-6.29801186340596E-10	-9.943575459565477E-10	-8.941512683242508E-10	-6.255640826553133E-10	-1.0795453917519255E-9	-1.1578725967002358E-9	-1.0842069746364272E-9	-7.191009702463018E-10	-1.075740754679395E-9	-9.445205006999372E-10	-7.505740235008457E-10	-8.972655409556888E-10	-7.090653684786496E-10	-7.575251919065164E-10	-9.380222354908713E-10	
FineR200	-1.3601172607954674E-9	-1.2361462039774886E-9	-1.2290257667205128E-9	-1.049147697124756E-9	-1.2510545942988522E-9	-1.2062735292356564E-9	-9.860206310548114E-10	-1.1753391084773234E-9	-9.069747682795906E-10	-9.486278873934929E-10	-9.059348741092729E-10	-9.592634741909482E-10	-1.1184894412311747E-9	-9.669999050938794E-10	-1.050200856157713E-9	-8.727399104683607E-10	-8.385721997037285E-10	-8.445471083584746E-10	-5.750648218459354E-10	-6.886633683124904E-10	-1.0028212498980957E-9	-1.0222057097107598E-9	-1.073279601242241E-9	-8.274068544360069E-10	-5.580852184037318E-10	-8.907826486138346E-10	
FineR210	-1.3342972059997236E-9	-1.5591122450984243E-9	-1.1084239392874058E-9	-6.893307750377836E-10	-1.0044280651229306E-9	-1.0394438879990778E-9	-9.598657483018602E-10	-1.1972721040021835E-9	-7.613926181080404E-10	-1.0875082996809827E-9	-1.2655680999127562E-9	-9.04107300451985E-10	-1.0662351575910523E-9	-5.556594378474249E-10	-1.1979998621542618E-9	-1.2091725626542484E-9	-8.269188092056529E-10	-7.359318998276744E-10	-9.928561145604945E-10	-8.18261420707619E-10	-1.2943745001086073E-9	-1.1155358012641338E-9	-8.005664458082387E-10	-9.101540205735247E-10	-9.595917070983116E-10	-5.344996477415867E-10	
FineR220	-1.1663403468084134E-9	-1.3766927060167792E-9	-1.187713072303166E-9	-1.1799066747927769E-9	-1.0815144565922069E-9	-1.1962425541258737E-9	-1.0753254828372487E-9	-1.0686895227402247E-9	-1.1168369575888175E-9	-9.704893717614858E-10	-9.818254620785425E-10	-1.2734975022026689E-9	-1.0489095356091273E-9	-1.1185365506447572E-9	-1.0350329721245798E-9	-1.2139080871333305E-9	-9.471635136475013E-10	-7.37127466794583E-10	-7.615224669944952E-10	-9.927260140322935E-10	-7.989967043687946E-10	-8.475883994060655E-10	-9.53009932511088E-10	-1.0767726871984015E-9	-7.80492191023199E-10	-9.925523944115262E-10	
FineR230	-1.1738467776150997E-9	-1.3417814267045295E-9	-1.158147395400477E-9	-1.181200528237746E-9	-1.5202374949515465E-9	-1.2208434443789884E-9	-1.3330701271636266E-9	-1.2676562075952255E-9	-1.1053326860877208E-9	-1.1987695433254743E-9	-1.020959919006496E-9	-1.0963354914060523E-9	-1.2916435558102961E-9	-1.3308067974552643E-9	-1.145541274305251E-9	-1.3522694135170898E-9	-1.2616824798158655E-9	-8.976455669195517E-10	-1.042530626778399E-9	-9.75854454585766E-10	-1.0677753532310216E-9	-1.0173678240071025E-9	-1.0043134721695158E-9	-6.344228264209193E-10	-1.090571666522288E-9	-1.0202829557695538E-9	
FineR240	-1.4268956191294408E-9	-1.3714021845580915E-9	-1.5799942762776993E-9	-1.3329320898515751E-9	-1.329900645795284E-9	-1.3026506572706509E-9	-1.0506489268853644E-9	-1.0769200844749462E-9	-1.1787470069193292E-9	-9.933393938676926E-10	-1.4692867966512877E-9	-1.2807345638671825E-9	-9.889349251437102E-10	-9.533248842762826E-10	-1.031414353975571E-9	-1.0268411617150028E-9	-1.2668366649282976E-9	-1.104393661993388E-9	-1.195438603992809E-9	-1.0730288516852382E-9	-7.979185468756253E-10	-1.0013691589952812E-9	-9.932446289474724E-10	-1.0382360305205988E-9	-9.510680076902823E-10	-4.927624761776334E-10	
FineR250	-1.4322745051663315E-9	-1.416187787789352E-9	-1.5472357151759276E-9	-1.3522452608976555E-9	-1.1694000301184385E-9	-9.063308303878645E-10	-9.996095675987786E-10	-9.999882330207916E-10	-1.0244549946248977E-9	-1.0441332419447326E-9	-1.0838144230524133E-9	-1.0709478754710935E-9	-1.1354681608084093E-9	-1.1223607044845114E-9	-1.1709465441061854E-9	-1.0461149645942742E-9	-1.08330523945488E-9	-1.369911553169309E-9	-1.2538555005780537E-9	-1.2972101557998471E-9	-7.112703774110045E-10	-1.0771341241550318E-9	-9.162172065450991E-10	-1.0825354074217379E-9	-1.0532305477911472E-9	-9.943700055829591E-10	
MinCout:	-1.1893882763663662E-10	FineR:	60	FineC:	180

	FineC10	FineC11	FineC12	FineC13	FineC14	FineC15	FineC16	FineC17	FineC18	FineC19	FineC20	FineC21	FineC22	FineC23	FineC24	FineC25	FineC26	FineC27	FineC28	FineC29	FineC30	
FineR90	-1.2129915211094174E-9	-1.6213235178908864E-9	-1.216212345180007E-9	-1.2351343478137629E-9	-1.6027780571018031E-9	-8.057302954007573E-10	-1.2401009420551279E-9	-1.4375943791443539E-9	-1.0665329944650106E-9	-1.2934823720996968E-9	-1.2265431511117628E-9	-1.505342886533777E-9	-1.009098491338133E-9	-1.4727826942276622E-9	-1.0681039130241857E-9	-1.4808426839744727E-9	-1.609294641555024E-9	-1.388256809668713E-9	-1.5492571817815563E-9	-1.2710851717577522E-9	-1.3494654823301637E-9	
FineR91	-1.4658816254884508E-9	-1.3739171573280227E-9	-1.6413069126092708E-9	-1.4937700745845942E-9	-9.774985688073458E-10	-1.1702344016174356E-9	-1.8860483759989914E-9	-1.3795736549414725E-9	-1.3881485244656311E-9	-1.4318266913730523E-9	-1.3899994075639291E-9	-1.4854196644677222E-9	-1.1698312682936115E-9	-1.202399640490059E-9	-1.767605178829329E-9	-1.3157550192491317E-9	-1.4640557295511065E-9	-9.183757518032662E-10	-1.3334316612883772E-9	-1.338492911657081E-9	-1.1691559935130493E-9	
FineR92	-1.5741398355905518E-9	-1.3097217786988796E-9	-1.254767012658157E-9	-1.5926246404287792E-9	-1.247940910559517E-9	-1.372831162089622E-9	-1.1487146291545126E-9	-1.1451428536749545E-9	-1.5263114205852065E-9	-1.3513075560602654E-9	-1.4881149224168641E-9	-1.2285256440231212E-9	-1.2178239126190855E-9	-1.280764725830123E-9	-1.2335277297202357E-9	-1.5272175374003395E-9	-1.1995083126914677E-9	-1.380347763761726E-9	-1.262978722684001E-9	-1.393250801810349E-9	-1.5306172647931554E-9	
FineR93	-1.4093466851221036E-9	-1.6148915944569722E-9	-1.5187679590913757E-9	-1.7604589646466861E-9	-1.7318431103318172E-9	-1.0377818427711144E-9	-1.2562899724845262E-9	-1.1854232500333435E-9	-1.671979411850158E-9	-1.4369390257609937E-9	-1.2031013586383734E-9	-1.5069972874876103E-9	-1.5345790473588657E-9	-1.4643155927722499E-9	-1.519443153827233E-9	-1.4898132438646637E-9	-1.2117738902120171E-9	-1.1975950513597457E-9	-1.5148678923874898E-9	-1.2118971594550628E-9	-1.4977751753576275E-9	
FineR94	-1.2836923627647392E-9	-1.5096952800318303E-9	-1.4059236879999628E-9	-1.4509388141583218E-9	-1.4186701776873064E-9	-1.4479272973047519E-9	-1.3797143342558534E-9	-1.2119364226013799E-9	-1.4245441763101993E-9	-1.5621142197452243E-9	-1.1186232851572957E-9	-1.6912486821005142E-9	-1.4126006236417982E-9	-1.3778573761661363E-9	-1.317196615360106E-9	-1.129842875656373E-9	-1.1274552846575546E-9	-1.5340666202174804E-9	-1.3180756462874537E-9	-1.3416956782008332E-9	-1.4263656119346764E-9	
FineR95	-1.217328640824373E-9	-1.7270078733981717E-9	-1.4200969951733287E-9	-1.9544636043258727E-9	-1.6555106760523998E-9	-1.4753840729290654E-9	-1.6074937257724061E-9	-1.7692679514226638E-9	-1.677159207511518E-9	-1.5210747420420546E-9	-1.137059312488799E-9	-1.6491420819341264E-9	-1.3790161502574278E-9	-1.5886486043053639E-9	-1.335971994251099E-9	-1.432512833295247E-9	-1.1528189873310974E-9	-1.6934859482174306E-9	-1.3019444117643245E-9	-1.5329246746840004E-9	-1.51087723925483E-9	
FineR96	-1.2444410812217259E-9	-1.4837787414717352E-9	-1.1074472608175546E-9	-1.3370711357296244E-9	-1.489624677107463E-9	-1.5201289423011625E-9	-1.5279419964599625E-9	-1.4633076305051586E-9	-1.561036713676683E-9	-1.3300595672046217E-9	-1.6036868308845491E-9	-1.4331643072794873E-9	-1.2556575247609634E-9	-1.3273921365031528E-9	-1.4299491872098815E-9	-1.3558957428747931E-9	-1.544567755237191E-9	-1.231195015295662E-9	-1.1736680079388028E-9	-1.186994041605344E-9	-1.2810235275389867E-9	
FineR97	-1.1378036301379902E-9	-1.224840308396512E-9	-1.1593030935370924E-9	-1.5055640779197019E-9	-1.7886051731837304E-9	-1.5694129018127669E-9	-1.708152246959651E-9	-1.1836280156180389E-9	-1.6458182502140022E-9	-1.5174400232353895E-9	-1.7026886928209132E-9	-1.4924187972042693E-9	-1.7314134120579201E-9	-1.4952729558769533E-9	-1.7039410621659844E-9	-1.4472741572146521E-9	-1.456786199715173E-9	-1.0853110401023701E-9	-1.37401767600396E-9	-1.583813630167082E-9	-1.4468174721225594E-9	
FineR98	-1.5890919633195848E-9	-1.6924352954929819E-9	-1.8813392475130465E-9	-1.2253629209788506E-9	-1.683977778179294E-9	-1.6831372165087693E-9	-1.3644869181157994E-9	-1.552770363965719E-9	-1.6887742746945607E-9	-1.5540273527924518E-9	-1.8201182701883359E-9	-1.2449996585944415E-9	-1.5004591101194614E-9	-1.3553044834626301E-9	-1.465094763683357E-9	-1.3226585880891822E-9	-1.4214997558725237E-9	-1.3146089937073283E-9	-1.3616337956079277E-9	-1.5711040907998178E-9	-1.492141000706941E-9	
FineR99	-1.46243834111801E-9	-1.4070403381730963E-9	-1.5532985747188967E-9	-1.2978338130626847E-9	-2.0414608522120455E-9	-1.5814137499873613E-9	-1.5682521836388695E-9	-1.7071215675856558E-9	-1.3328800840741828E-9	-1.3149111090267851E-9	-1.5481751079023476E-9	-1.4617211901815224E-9	-9.59300242341619E-10	-1.1559668370161305E-9	-1.482875966384268E-9	-1.3942701835376664E-9	-1.838562709576293E-9	-1.5158275834625484E-9	-1.3187812831668965E-9	-1.338525065350091E-9	-1.22508609010664E-9	
FineR100	-1.4188656252516217E-9	-1.6863371602560595E-9	-1.5218699992636106E-9	-1.6062556647276853E-9	-1.3313285059518269E-9	-1.5404449081551127E-9	-1.3480598381770791E-9	-1.7516389277871853E-9	-1.3967779269945332E-9	-1.8124143669325254E-9	-1.5976907935108923E-9	-1.3787438690103508E-9	-1.948708587889237E-9	-1.5060743083624714E-9	-1.6890325479748368E-9	-1.2376042441247554E-9	-1.5047107423773194E-9	-1.2121752062214247E-9	-1.3140631649988145E-9	-1.6416527999118534E-9	-1.104322790030985E-9	
FineR101	-2.0521143678577673E-9	-1.2801622082333757E-9	-1.5206072105465335E-9	-1.7713837549111482E-9	-1.6788366597357242E-9	-1.3678918125444528E-9	-1.5599026708442584E-9	-1.5118529425265448E-9	-1.6088234212405134E-9	-1.5712180161384574E-9	-1.1907898980539798E-9	-1.4293242908068999E-9	-1.2274565569629991E-9	-1.5860237801180649E-9	-1.4670181756742635E-9	-1.4159265121714098E-9	-1.8100157568882955E-9	-1.384992116841104E-9	-1.4449362487399605E-9	-1.7638653123600154E-9	-1.77579999709368E-9	
FineR102	-1.6852463173027074E-9	-1.3398321687457974E-9	-1.855479152798711E-9	-1.9811776225073153E-9	-1.5038102910884103E-9	-1.4194433167114677E-9	-1.3878569657584167E-9	-1.34288096981688E-9	-1.2340734759125468E-9	-1.2672987070084569E-9	-1.871993564337807E-9	-1.336562848384507E-9	-1.2404079183107145E-9	-1.7055044787115583E-9	-1.7356523602828425E-9	-1.1747849091436932E-9	-1.0325478357001433E-9	-1.3855097116371084E-9	-1.143622032576111E-9	-1.0212928555440901E-9	-1.4267635741321242E-9	
FineR103	-1.494493544140309E-9	-1.6886821579636731E-9	-1.4548933216541081E-9	-1.3486525982102187E-9	-1.5736583108825627E-9	-1.566946339254704E-9	-1.381565875524466E-9	-1.1156041812955493E-9	-1.2705350040154737E-9	-1.655815703568066E-9	-1.2183641203845386E-9	-1.5325851346102413E-9	-1.863661944799867E-9	-9.71930382012222E-10	-1.7493117117371223E-9	-1.348149450649093E-9	-1.7988367833832457E-9	-1.3804474528519667E-9	-1.0239393930717564E-9	-1.3688046707954388E-9	-1.5209848130306725E-9	
FineR104	-1.4477156861078132E-9	-1.1691573935724298E-9	-1.639810989253063E-9	-1.4226646728131578E-9	-1.3054033614695434E-9	-1.7178066732141984E-9	-1.0765756507497245E-9	-1.5939575408822983E-9	-1.367349301157406E-9	-1.1795194898892327E-9	-1.685209841391145E-9	-1.264824768440881E-9	-1.6844680233026068E-9	-1.8791823804492103E-9	-1.1795512382344145E-9	-1.6982756135329845E-9	-1.382433042629814E-9	-1.6406158775891423E-9	-1.364595008702773E-9	-1.4064236023763903E-9	-1.7851139067442048E-9	
FineR105	-1.3719141193307009E-9	-1.5750060540083982E-9	-1.080361373047985E-9	-1.643112086167424E-9	-1.6184879014783895E-9	-1.6266084675502838E-9	-1.837448104678558E-9	-1.655451667354784E-9	-1.5220574798934725E-9	-1.9826008586565175E-9	-1.1953003138052289E-9	-1.6759536925910358E-9	-1.3582955508854348E-9	-1.6380937882157195E-9	-2.1373126600123856E-9	-1.4445478108228213E-9	-1.4658798527997996E-9	-1.3349709969105155E-9	-1.592945529212476E-9	-1.5729797194631793E-9	-1.3086370018911165E-9	
FineR106	-1.3470066896138622E-9	-1.2611114378121003E-9	-1.519735161197085E-9	-1.877553213451399E-9	-1.6884336445249298E-9	-1.6882118247934822E-9	-1.6480502309174739E-9	-1.262569007837725E-9	-1.3485299676301929E-9	-1.338269435870016E-9	-1.5942164092880205E-9	-1.1780131013884213E-9	-1.5135232697560934E-9	-1.3333348596614297E-9	-1.4136187450822753E-9	-1.720093504839002E-9	-1.3277880686135397E-9	-1.8175932275534018E-9	-1.7665680641668277E-9	-1.5891005286904994E-9	-1.6333903506144814E-9	
FineR107	-2.228584848573405E-9	-1.8970239477726104E-9	-1.7802549194107665E-9	-1.7514951761728529E-9	-1.428765829439925E-9	-1.5254200519155823E-9	-1.1143972784442208E-9	-1.2165699773204652E-9	-1.8720616989783178E-9	-1.3203779874929962E-9	-1.6956023655216334E-9	-1.8356658794752815E-9	-1.2958400145046624E-9	-1.1897581932112446E-9	-1.5698503037843112E-9	-1.3913768124941113E-9	-1.8660911152966384E-9	-1.5750854772492784E-9	-1.5540102596841219E-9	-1.407992920411047E-9	-1.093252420865783E-9	
FineR108	-1.3275261823607178E-9	-1.5053193757345632E-9	-1.5905217107239164E-9	-1.563572886047091E-9	-1.3543079157827153E-9	-1.50056072851498E-9	-1.5067418092671125E-9	-1.16896240038367E-9	-1.4067175317373674E-9	-1.9870349028514188E-9	-1.7423500726938565E-9	-2.0246209164586607E-9	-1.1215824618190307E-9	-1.5968673055869417E-9	-1.7113851628575672E-9	-1.5778418926446113E-9	-1.5648501763339275E-9	-1.100690936739466E-9	-1.5510299062807176E-9	-1.6394995694080033E-9	-1.0566357495435597E-9	
FineR109	-1.2845583505414642E-9	-1.7288901303707704E-9	-1.946619744634872E-9	-1.5195410427277515E-9	-1.7850003039346256E-9	-1.5022261073395497E-9	-1.3668346225411586E-9	-1.8185745182568642E-9	-1.5129956641936336E-9	-1.8846854465157567E-9	-1.3464219223616195E-9	-1.7302423641473583E-9	-1.5386763921726258E-9	-1.922511087302624E-9	-1.794420797545232E-9	-1.2487104316112543E-9	-1.2448898367110022E-9	-1.2132792419576845E-9	-1.895664387027297E-9	-1.5934618432565047E-9	-1.5559386135273718E-9	
FineR110	-1.809748961108414E-9	-1.5880388969520302E-9	-1.382858999319712E-9	-1.3299529773919706E-9	-1.5672253419347859E-9	-1.175387521985364E-9	-1.498263397945945E-9	-1.5960806387189618E-9	-1.44868654181647E-9	-1.5933878162571999E-9	-1.226496008782335E-9	-1.492324936752589E-9	-2.0983225115913256E-9	-1.610410118569828E-9	-1.641591422646363E-9	-1.507664377214305E-9	-1.3644312541676122E-9	-1.3456803710032868E-9	-1.3050232271935356E-9	-1.7624653480641763E-9	-1.2348749681103122E-9	
MinCout:	-8.057302954007573E-10	FineR:	90	FineC:	15

