	CoarseC0	CoarseC10	CoarseC20	CoarseC30	CoarseC40	CoarseC50	CoarseC60	CoarseC70	CoarseC80	CoarseC90	CoarseC100	CoarseC110	CoarseC120	CoarseC130	CoarseC140	CoarseC150	CoarseC160	CoarseC170	CoarseC180	CoarseC190	CoarseC200	CoarseC210	CoarseC220	CoarseC230	CoarseC240	CoarseC250	
CoarseR0	2063.1465492811703	2868.6586821430533	2801.208041840078	2862.492665963732	2492.337469722783	2871.628455750042	2634.9242694273166	2878.8588488163537	2562.7843151469233	2645.6952373250197	2674.082052155853	2870.549311627993	3114.8229942461517	2611.3407020954555	2594.69507479216	2659.2520133894177	2411.733382753242	2521.57279200263	2270.8490415105425	2477.911362547469	2408.1147570662915	2432.5971116871815	2152.570677719324	2475.6983411046845	2357.0808880107825	2318.842838249962	
CoarseR10	6901.3535510702795	7248.907979485666	6437.263359070101	7781.466175100994	7553.125748934732	7001.714021390101	5606.646884454886	6143.673895849039	5379.650554197608	4621.0357176844445	5582.779913278831	4898.0419613399945	5878.985882380201	4841.488226366993	4680.42713154274	4658.556829788527	5481.750944527637	5175.502667391757	5468.9783080462685	4351.672697727671	3818.635278317373	4680.877172437817	4014.984602744	3957.5476638637633	3987.855821742392	4364.084408336957	
CoarseR20	9216.539260155874	12696.81006458647	15961.086130172826	18450.68366141243	35193.02635622346	34607.630717315755	39759.774221717606	48545.542049791424	57269.25111819912	14821.622871862297	28492.346028712414	95769.71765643763	14851.12842455737	11694.336587425474	22313.490381386473	11826.510320520316	16332.781769726378	11473.191374836912	8431.564644093072	10138.247217725419	11163.85813722593	17526.797788273685	11650.449532507651	8017.219693313319	9096.855251130959	9001.820046017088	
CoarseR30	10812.948708484058	9651.746982836947	12838.163280506678	11207.823871932582	18526.118057832	14787.45123191821	17759.465724389236	15415.476493812714	19943.676033567794	16078.241368960096	19087.76394219178	14532.729804061306	14932.160797699851	10886.95930530475	17491.305171095388	13021.345770503678	12840.389174444159	11743.25703119048	9706.808357646982	13618.058238895244	11183.398200810982	12012.399958221784	10606.011928461861	12506.03524505263	9379.395969788186	9564.474104817267	
CoarseR40	8732.626664675516	7587.06574138548	9800.41522401754	10613.225069578397	11660.08434756083	8088.07817086192	7537.265197151149	12406.23425674297	10140.59567282594	10088.724067895162	10623.035459174374	9216.49215045957	8603.794240395457	11068.192901150514	14717.293401057448	8872.551427548031	9909.025031958097	8219.142534680372	8678.442701282715	7889.253774801311	8874.41982010874	7725.809396415239	8923.057601718469	11068.7304041138	10009.396640548623	9491.428451645752	
CoarseR50	8015.2488526812185	6528.284640958062	7569.318802098448	9704.702505164081	7430.546325907112	7868.551315707394	6864.681191274177	7566.963811102863	7248.708032569476	12548.126477837066	8818.079191904906	6703.930016803927	6946.952859686801	8815.587537467238	8704.037265273411	8455.579720206437	6715.154321619607	7310.5083345887615	7208.311244362426	6439.174053748638	8275.981922183817	6753.89187967631	6909.035870943611	8024.3910766944455	7380.899608092666	8715.798702225242	
CoarseR60	5314.22482657926	4429.278990941994	6671.972364502205	8681.742180746744	5945.215586935854	5580.941674251452	7413.049336043138	5233.709531958649	5206.893496381783	5925.52498666445	6216.71589817587	6024.7686418886815	5421.569962789131	6694.5531328297875	6768.026412016561	6691.782040935671	5496.163418816082	8009.299463141741	8140.6225110952855	6514.949665960942	6659.760159196281	5639.2485517878495	5443.262013748269	6278.942414794913	5865.345203494551	5915.901124120902	
CoarseR70	4770.099149039798	5422.850189147732	5299.777511801836	5934.175789006097	4965.9820412377085	5487.4301268991385	5588.92256234609	5111.509402065656	4930.9836108302125	6320.288259730752	5622.90815537205	5503.417089178131	5045.450755192189	4544.137008784814	4758.518511496009	5806.45815941193	5100.115829746656	4974.046009388269	4729.3160830790475	4805.321303830911	5131.617880468187	4776.049470878243	4916.4269623228365	6577.303597926411	6317.780188582013	5521.402153972736	
CoarseR80	5449.068258589888	4760.72428396251	4353.692512434953	4553.458178952338	4190.926598582791	4291.7820190071	4604.213370450781	5039.281936480983	4748.26842020391	4181.526679906334	5526.246621341185	4553.779459601855	5176.952193771686	5461.073103886962	5106.816728751365	5239.3238415112955	4903.666213908718	4906.910381349628	4860.419774736652	4331.774255348348	4661.107793876201	4538.3682638857845	5058.918022693442	4841.240576581939	4862.09275233162	4609.89919783808	
CoarseR90	4531.1131715936635	4245.635774130587	4484.154634149798	4411.283056132451	4150.90525534605	3900.475035523914	5148.612053848103	3877.1225376080433	4501.342287245893	4662.046917605183	4263.744136209564	4881.3232914637265	4616.42216323825	4374.1675102815525	4338.469162301149	4511.4028422879765	4271.487704936948	4251.891262166539	4522.76087286728	4983.713396528754	4320.0496729322185	4163.755638096438	4312.149923139844	4414.612524566902	4962.164443162417	5029.858051237773	
CoarseR100	3955.626518739964	3999.87851247879	3934.496987652966	4342.229117676079	4059.3718173671487	3995.290018352483	4015.5371133263934	4077.4906904817412	4113.500510526076	4259.824111534096	3676.6857237497516	3932.7773810632007	4099.290968782382	4118.455924193903	3909.017375517031	4416.277249626988	4241.127774390489	4824.189692333513	3858.1588331115195	4107.211015074854	4080.9314644575816	4209.670399173441	4369.193818933039	4388.729938959282	3964.724587946055	4268.603836238059	
CoarseR110	3491.6842488271345	3625.9032177332847	3898.3009759692195	4172.112359665724	4773.320107720308	3585.1604896824656	3986.5850700113356	3910.487317461202	4223.055474946827	4536.482744494897	4483.732220831572	3774.0258256076054	4285.541218301531	3916.2577270637166	3678.8884155704286	3721.009515737244	3791.7174497960245	4504.183402624736	3909.408503574298	4125.339727800946	4162.407171639943	4056.929196817891	3614.973456150259	4170.289316009289	3844.142248159869	4997.764270481552	
CoarseR120	4078.609199871473	3468.6524604100587	3641.965977149867	3477.229297335112	4166.2506987453025	3593.3767351019164	3648.2862978914186	3335.253808849761	4162.54665833606	3853.3792623183986	3946.894143873427	3646.4123134190427	3772.8188739610628	4136.48616042647	4387.625898719981	3620.7865688100487	4580.762920630438	4072.9285424052655	4289.49436785421	3652.440885126321	3795.048375752236	3877.934842476612	4466.953965623608	3695.9115730966737	4706.54288644539	4119.8092680067975	
CoarseR130	3447.636786329789	3270.962649447577	3085.9828818240967	3576.6627072731326	3729.1976107323158	3568.4237763734886	3612.054383512097	4261.645616093139	3550.3250371211616	3492.894894644015	3851.40701369681	4750.106670969384	3648.9546499199505	3638.6953990157112	3376.5160218554315	4477.353727309194	3966.4085235260673	3537.2349346010465	3671.5376752709353	4083.1884762612676	3795.559344988251	3512.698284068011	4133.954898032755	3858.3756091647483	3894.3364863606394	4291.171711461295	
CoarseR140	3106.056856952689	3283.9100102607745	3774.543083222605	3464.0925165367416	3326.795911086035	3599.1672465856136	3192.32127381623	3763.9698833993334	3604.4328270855585	4142.469281429427	3813.037699596351	3420.0911907214036	3453.9770793436046	3834.6100459480426	3779.2768038305626	3508.950661579249	3697.0599774646366	3777.0297639468868	3713.8376778156985	3822.3769911337245	4003.2181273540987	4050.754698174478	3542.87413945655	4142.831035018929	3820.0344696635366	3433.498835787094	
CoarseR150	3233.6785498760137	3612.846809986652	3305.1505385877294	3388.7539424313777	3792.5633480555184	3422.6429288007707	3571.5222033926407	3769.208938127146	3583.3873816914333	3694.6095551812446	3299.335663963349	3460.860483708394	4137.65389979884	3169.0339076570244	3310.654544354834	3766.118349960385	3588.014016541996	3782.267088233022	3674.376608838682	3746.6839988370452	3418.3486900168828	3703.0694553800713	3660.286184041931	3507.600614167282	3737.0704009013384	3540.9349788169898	
CoarseR160	3474.3780905609437	4217.202833493966	3829.2290623917124	4439.288176400744	4432.7275600759185	5056.418576395052	4148.6889474173295	4214.373087542449	4975.184825912922	5410.494183351687	4430.003711562174	5324.1921207354935	5361.41955729953	5746.270458498749	5391.083496629608	5779.620861126052	6434.954787351255	7143.271584861233	4922.47420354255	5691.179807722512	5585.514468753466	6017.140990879979	6249.696984113923	6830.162932003459	8299.467208156415	6943.396116746076	
CoarseR170	4132.763204648004	4427.454779708959	4205.718172704501	5032.08763287974	4593.47093714046	5609.850139178343	4663.9830178763905	4483.796577431466	5339.809055400178	5294.086278621229	5559.408316750806	5964.37611676516	5879.250758065782	7090.036106152855	5940.524210516018	7151.971768640932	5093.025693155787	6160.763573529656	4956.368383972413	6351.56603135743	6555.133703490724	4877.8051397202935	5508.152370929682	5816.638502732175	7461.796656376273	8024.51534740735	
CoarseR180	4333.081841984075	4404.44988522971	4805.213285957275	4383.876307439092	4127.695426250864	4747.062112369248	5996.362323614705	5577.122398837081	5397.152945820297	6269.028742205936	6910.805029008422	6088.0291207182445	5629.847281553172	5577.763956355906	7466.471823738449	5803.898964885083	6372.130670875948	5331.271030716328	5133.595562566348	8179.356345530989	6307.212560792232	5305.904602478231	6165.999066105859	5344.913388104506	6047.313761928781	7175.889442976214	
CoarseR190	3766.6458931582843	5032.367853095261	4193.276178921089	4645.821361782625	5088.852847683795	5144.794235205637	5089.455170234225	5102.855337123958	5160.545301954306	5861.30410343247	7407.768171921527	5982.387623088464	6336.077997529829	5938.633387346842	5895.379064069956	6063.702027437157	4577.5828369113915	6325.652713002058	7008.182860928456	5168.459195721011	6479.742005454	6878.917628702191	7595.71926053179	8099.347707917643	6212.21377786786	7744.521216639622	
CoarseR200	4249.40112576133	3970.010244981503	6915.220389531668	5265.91337616163	5052.866114533818	4690.2454216411525	4983.654980234246	4645.915888637509	5442.828617718326	5259.034639682855	5950.564073291371	7309.956817617833	6684.410893511004	8975.665557083708	6626.075280666374	7414.761737463568	6977.384077015599	8374.696282668072	8873.346825255252	8911.219914014453	5638.618442257646	6565.392408790785	8050.0822472329055	7315.9005853642575	7534.784903495817	7844.275723209191	
CoarseR210	4947.959973595168	4589.950818151348	4596.0046183928025	5689.160653280529	6153.8909022486405	5615.184094083097	5987.893724223244	5195.853536036048	7120.5724036948795	6285.828490419951	6634.830701390178	7764.0138464072725	8391.575726298204	7062.912663498803	6511.015416832071	6496.469382894956	10786.66309389832	8089.200747256047	6919.406073959341	6977.17983179834	6653.187337574693	6835.9160234298115	7690.960880536311	8646.733424298864	8908.574295807111	9637.945097278558	
CoarseR220	4615.099792501219	5143.6422978653045	4232.005404419762	5344.6247649186225	4808.387771154673	5423.701884770865	4926.7827178451535	6931.405457205489	5669.332767420221	6015.321422840672	6545.992697792828	6346.954476717197	5797.111889796806	7754.972678169259	7327.400931705914	7470.24907421325	5992.166011380058	8052.792919690145	6928.358243439156	7439.073602165535	8484.226778763521	7434.420849105468	7541.232380530533	9413.153116771622	7680.998662830823	7926.587324920337	
CoarseR230	5267.690848322509	5197.9777371719465	5574.954937727946	4574.201549626887	5538.142937401304	6145.847998307358	5744.673613880418	6502.329569600052	8197.52676395095	6595.873661050899	6014.549819126879	6877.5317329831205	7878.710824329909	6792.8631851796545	8646.073452782468	8520.3145423106	7920.031911057493	7628.893759212577	8109.068918267049	7214.632296139202	7512.503706043349	7639.7203513463255	9394.494756519895	7826.45592489329	10170.839994197086	8914.054336081721	
CoarseR240	4920.655736107363	6233.375050486484	4905.218669988196	6397.822621990818	5066.892224090123	6271.139432433462	6443.611899680107	5866.955298727997	6053.616244456831	6430.004993920127	6754.038515409079	6014.744456044761	6354.057124498826	7701.798891321501	7531.681272446095	7608.553980155172	6924.300022558073	8748.16867707304	7945.793159066803	9728.297783504713	8339.086465380058	9551.10377347437	7110.355609784738	9345.233044291926	8754.187506575028	6525.73871575324	
CoarseR250	4551.095349788271	4219.726003238587	5299.9658805441	4614.027530578018	6651.091808244168	4990.833631872774	6153.866624959427	6224.71650260137	6416.849399521316	7969.329887986273	6638.505140691641	7115.711709726291	7312.532630521083	8441.118171208114	7064.520994218384	7243.969972525877	9435.343809404643	7765.778339634368	9478.184079237715	6723.711054941826	14290.324723583824	7506.251304940288	10054.48336662754	7956.005133758424	8441.60213165495	7602.514252600578	
MaxZout:	95769.71765643763	CoarseR:	20	CoarseC:	110

	CoarseC100	CoarseC101	CoarseC102	CoarseC103	CoarseC104	CoarseC105	CoarseC106	CoarseC107	CoarseC108	CoarseC109	CoarseC110	CoarseC111	CoarseC112	CoarseC113	CoarseC114	CoarseC115	CoarseC116	CoarseC117	CoarseC118	CoarseC119	CoarseC120	
CoarseR10	2554.8233456769567	6705.735895035883	7481.8801457871405	6746.11282148804	5580.811807201778	6480.453768184851	6580.420644631417	6604.612444593374	6520.0873300185685	6093.909097423437	6957.739800312834	5821.947156015055	6643.390546744758	6201.7065117310685	7593.633050367504	6103.2348028264805	6062.033506681028	5616.3255274020885	6348.006664398401	6111.27837114703	5182.602199200881	
CoarseR11	6756.898013798252	7534.8228325165555	6426.5468596122755	6710.062043570552	6487.388873005614	6495.6297741596045	6954.519583381373	8044.316393960246	6817.985885989908	6557.518121129445	7171.811550023886	7418.429969350007	6377.0899422423845	5943.7118667399955	7523.655773931823	7794.883063032553	8382.392807805007	6579.658986484378	9115.028582156085	6730.150162354453	5477.553318865556	
CoarseR12	7657.739340390157	9223.507689352598	8372.403275522307	8479.285829322007	10622.425281911843	11169.89080859123	6864.5608446576725	9127.691187391616	8341.58447069463	9596.70449009842	6780.48238136798	7937.881302080443	8386.944331155737	7186.299843737027	7953.429594153929	7611.582882947694	6516.477239252177	7794.674972705936	8560.277412494908	10460.855362154722	7187.715259597746	
CoarseR13	12760.06394131096	10595.2552664046	8911.340037938153	11003.50844653436	8911.233506696872	9195.158730095294	9966.942713634919	6997.552413711621	9048.021317337145	10034.494929096285	9330.093651048413	7258.697853358575	6830.788227544338	10586.72566818463	9008.227617032906	8063.456513668151	9075.704835337923	7570.224055495641	10925.888344216148	8210.909368391178	7663.327684256736	
CoarseR14	11086.518758124468	11404.848258031905	8358.711706092587	10731.266750102855	10779.533421090318	14050.061768181993	13786.549426812622	11180.017422263889	9022.138677382174	9453.478432682892	10998.388583967742	11974.453899875542	13075.44979788912	10412.083217425163	9317.144357480796	12895.02404679572	11486.407937139335	14017.88889104934	10926.029163693944	9606.642151718324	10093.532551805893	
CoarseR15	12856.741386420535	15384.090616706628	14481.771113598263	16486.901117280777	11901.386319038626	14014.6868297705	16902.252682630235	16696.924944480033	12422.286050178422	11262.909784679314	11903.941894758005	8999.630737042402	17896.693060465543	16401.191424265184	15940.534211756885	12493.165535534474	12585.173994908633	20017.93460977728	14103.488762291247	13420.396763168228	12172.312373258075	
CoarseR16	18184.364388426937	16755.121979179552	14325.829359843907	13619.51850354081	28327.877091913397	13809.386887569464	11475.045717631887	20925.725545052053	20344.25426944643	15257.765015713294	15458.532186763652	22034.023564171996	13115.054935136857	16419.42228725263	17198.30174190584	26581.19104806807	11444.555097542094	13173.975319443942	31688.50048653294	13468.109334013367	20012.248396617833	
CoarseR17	16629.2634028727	19212.19690950529	21161.60056039714	18578.23600596714	22819.577540163817	26646.13850122603	20905.044085196918	20783.113685517626	18568.751660309	28308.250586298458	22662.452590290035	17152.329757104657	19149.176868732975	32621.342535234813	18897.027751737478	28193.602002293697	22490.058420743895	29073.41032634707	23605.46620815188	24480.469832158775	38357.42185372975	
CoarseR18	24041.191131324325	35493.89745836577	23279.520179297895	32248.638912354476	28298.878125174666	20449.0993134251	64759.31211528788	16011.97808873924	26455.50287291208	46180.73311233204	23058.69680231084	28523.86850997732	27753.283112875146	24439.975982994885	19190.26380964169	41607.16242965645	23049.438203765218	51481.13161605818	20941.928861458993	45753.51567847463	16000.477168548621	
CoarseR19	19841.341570787456	19297.776259428207	40153.56401470698	26389.28368013586	24966.074228538564	55863.0449296471	33928.37685525453	39458.85151419188	23291.410902756495	17804.837509635614	41611.87010445765	25671.247652459555	34800.29731912979	32419.628989537017	38471.05687644581	32126.694953376642	19014.573795802666	225934.96055550873	287341.4832564209	59891.95293485651	84681.6732440239	
CoarseR20	23727.261500152897	61844.28313552376	28870.687795204365	32172.691637091604	29051.973996919693	27008.9861592035	23352.946860466298	27415.983830950114	54647.36987977331	184263.6539996521	142254.0077965923	38788.64844251722	46455.848757681015	27722.42436779006	40331.87292284725	47685.447284679925	16951.827824930817	57755.44158919804	37768.23782454661	223381.75222294897	23425.086075472853	
CoarseR21	33027.6919166319	15790.847606081144	29243.493697429105	19736.019153223948	47578.71142533795	24727.82628390043	33421.241637048486	22109.85153097988	17442.99563375823	16699.692521806875	19630.044853231568	20916.027175552867	28944.14379684403	26551.89976724212	26460.33591832152	21796.07236630744	28010.347891881924	29938.837462931824	13473.33960287296	23779.20642361756	30634.69358703008	
CoarseR22	36589.06075364979	15418.265137318363	20258.55802933548	19497.04171830808	16031.90234732605	17812.33108245655	22778.022738704043	20306.676034393982	71582.04612713901	20788.66366272535	17129.44161910449	28616.443082609207	17515.73297440793	17369.19231405512	15206.732583035042	45573.454755401435	19773.819292525302	26185.140511514845	28405.50495086997	16522.573041297124	72558.39265052494	
CoarseR23	17910.12237055733	20679.89910323414	15176.673795046776	17251.809581324545	55866.3975094654	17673.18297245958	16699.606446552596	15738.606493916963	16710.352351568636	14387.846209627744	14455.856519945772	16235.43063000638	19735.742143473526	14647.175313708261	53113.07994860235	25091.783418530104	17903.880420590125	23359.532659502078	24042.193906585948	15064.300510879119	32905.00651149101	
CoarseR24	15978.521761715301	13819.71217426038	11722.347565282691	12444.229260044862	12756.881920910704	12965.283776653852	18071.149213028584	15046.273685638742	14726.315861093417	13499.651557766578	22799.80744254529	18770.13142853534	16845.801669981356	20248.714602573746	19812.669792184086	18527.604732368767	15741.427363350393	50068.262116344325	19946.0112160141	15741.715503652937	20046.734977625838	
CoarseR25	11321.348841020521	15267.808351992542	17434.99946164726	12185.192804042063	10887.240251309924	10937.054201491468	11057.734159774684	12355.342128122586	16177.600394566029	14682.094887644727	20223.16568758673	39243.17974459781	18141.90546221371	12407.381294192852	14602.513164245704	12058.28743021534	20875.575172441357	10678.963155186313	16116.000212364559	19619.798592167474	12227.110451632181	
CoarseR26	14712.945755673949	15961.704380266154	12937.823393774965	12786.547197188169	12199.955724498555	13579.81865882056	13675.787886947106	11819.401645932325	14659.974831833417	15767.913464153962	11912.987649372679	10256.046146132221	17108.50352091546	11830.10583057884	13399.06086658888	11858.34749330618	10826.809467693725	22686.024787537284	13809.731123800542	20638.336943525665	17329.687017586217	
CoarseR27	11827.228498530454	12205.150192991458	13059.62631473522	11900.375300816411	20928.288437395233	10017.314429598382	10720.959972363005	12303.649886599584	12301.930032915127	11604.610441150866	11511.723657727103	13657.528110686113	12924.839628685428	12434.747142968657	10834.275950122936	13833.708736313574	10957.34988525333	11511.2681275019	14532.633799511616	14275.44709808127	12342.034965756977	
CoarseR28	9896.908587309752	13331.932685725362	9747.742738740697	8777.743149968377	12150.1204763633	12509.724383279041	9253.98952436764	9706.00890068295	8335.057967421368	15193.485064555773	11224.555472396996	11072.176407207278	16076.874068808616	10867.238283984503	10844.085135701265	12920.352040431608	14425.546751779593	9953.447007322557	15981.050139708112	14144.147706978534	10460.335050683834	
CoarseR29	10405.758236047604	13817.573515251624	19129.32330420957	11018.960709450568	10232.706028292565	11719.755368628785	9399.803855046588	9110.696217183033	12240.299312194684	9323.999892734766	13538.482982077918	15779.576724994693	21936.119673793994	11536.382271267003	10939.707498083755	19352.558011774217	16481.56599269718	12999.201404569114	8841.833973411161	26366.79811242194	15364.1028018822	
CoarseR30	20857.853787361317	11227.582045565607	10188.83191496392	14744.571717161405	9965.139918116593	11970.37532573115	16523.235330688796	10180.981161787488	10621.879679913603	12907.217301655399	13276.216503628186	9704.922535937678	12029.986495907038	11163.859809081501	9573.572391650205	12743.80502809727	10829.277189069675	10114.815386973036	9480.61645533269	9130.036308488192	11283.763362001297	
MaxZout:	287341.4832564209	CoarseR:	19	CoarseC:	118

	FineC0	FineC10	FineC20	FineC30	FineC40	FineC50	FineC60	FineC70	FineC80	FineC90	FineC100	FineC110	FineC120	FineC130	FineC140	FineC150	FineC160	FineC170	FineC180	FineC190	FineC200	FineC210	FineC220	FineC230	FineC240	FineC250	
FineR0	4749.681742778802	4910.283898275871	4250.44949280238	4485.212555429252	4755.010753131498	4468.086062776595	4207.957910558922	4746.308056496078	4872.644763586379	4509.212188830412	4776.1922086403165	3837.207712735912	4334.59423358546	4103.6552358693425	3977.4019249343555	4978.362107326882	4696.764480102441	3730.193007300743	4259.109069390505	4156.887022562197	4373.6843906240065	4532.574428716731	4329.544379076299	4429.959904796896	4435.3163198443835	4841.0390176235705	
FineR10	8207.14725924236	8350.182539605363	8424.354661475476	7192.0590560762785	8017.108998517891	8244.825630010146	6887.938569387448	8666.138074042547	6574.059739487008	7268.230563900399	6235.097751586563	6997.494434358	7418.809128829649	7782.208722246297	7326.357065701656	7606.007011792621	8716.460292482023	7805.489807699302	7045.476384972259	6811.670174384728	9216.319581496215	7522.250449944235	7489.413809421513	6779.763345842497	7714.282905582889	8091.48359416125	
FineR20	10190.358612667449	8952.897253539042	11752.46464881264	10685.34317787896	12494.158282621334	11870.351175643067	11473.9531721801	11685.800320253571	9388.963274772112	11218.58078482299	11273.496188415704	14157.327647543216	8822.65392266096	12270.605195435168	9178.316085669841	12171.818913047382	9789.046899192532	9500.324941819892	17435.233093865096	10271.956855688104	11052.949488592552	10767.366912168214	11967.908677705462	9859.29802842146	8401.177760834275	12470.758700222339	
FineR30	11654.11129281111	12974.097577929095	13136.924268843812	12314.155922697968	9037.70255907354	14108.601897135302	14929.492291378732	12249.488867916383	13002.087214663476	15891.61136535142	11733.649034417936	14995.650927098925	13008.072545682106	15727.929442564158	10457.778399386072	12361.020195652323	11884.729508479404	11922.912501091801	13038.132934998914	12017.610118687135	10745.05862213622	15386.7713868018	12510.860551793106	21019.298715573033	19196.77276678794	16111.852212871367	
FineR40	11295.096930330996	11107.323166636132	11650.375477547383	22657.82077919584	11010.489157070419	18052.146491004904	14417.641028675967	12817.96802337362	18468.200785628007	12004.453146600701	16620.390600557934	13229.424393070898	17828.991559572503	14542.206090065009	14583.541866739493	16984.14533717651	18299.626759554863	11753.28544374781	22771.24297284321	12088.541074421824	21945.674304762924	22531.375300352316	15805.438330508445	14613.863849471614	13686.223178811066	16470.927827315816	
FineR50	14239.631263077461	13828.878446786817	14209.73614782121	12858.371396009428	21408.991942333534	21150.581939970172	23482.553255224902	16653.271103225445	20314.97869803503	16360.445653389104	21402.879921432825	13168.304853987755	17537.216764719127	21017.808568360728	19369.249066333956	17189.636605507607	13302.697908560589	16057.244052601161	14101.34080523022	18874.077445106715	17993.444031198334	15087.80015911174	18615.893398170218	22552.562955732887	19485.80967574188	15222.23650271153	
FineR60	12694.444020863853	11145.671321818849	16075.979212993607	11799.06325107344	18725.28719737044	17872.390823482507	20813.00463771778	15562.338049847078	14684.981405923778	16761.93006959051	12894.13172510156	15984.719431415175	16006.781768168632	13609.396133531125	27414.320174968252	16892.816850596377	19668.52774341231	22835.97571675683	34955.74141659139	17364.76251265428	16113.476883280484	12821.393765136485	17028.047681897526	16231.135330006155	18401.318330817878	18096.951522290827	
FineR70	15095.438362060662	17145.859733698042	17644.834330846825	13128.515311334113	11054.868910154846	14464.893037197435	11358.459964861735	26658.82973320761	15213.647510320081	18728.836707365368	24237.85535119899	19538.87984443742	21938.706246491547	11495.68322900282	26634.759473087757	20677.225531950608	16768.122861819822	16173.493864433622	13257.715550693796	13660.603796027372	32041.864419162473	24549.667226525606	24501.339878052975	19796.601286690366	32645.771006697603	21326.70413728915	
FineR80	14347.36929522327	22982.48991175946	10980.104488813138	17872.752939977567	16518.3251184691	13088.146041448228	21219.765712431094	27203.978254066864	18459.830937315943	20909.162287217678	23189.93887654782	20117.086206011885	34420.00258607224	14405.328422374885	18045.174484214884	23301.579451862744	17166.1911265197	23753.638907788758	20444.999536864525	23379.389652014095	31702.799608584788	17702.246002565913	15955.47872359086	41770.67368022651	32021.091417822612	19878.03140428756	
FineR90	13684.238384612585	13061.761057007945	13382.24213666413	15843.682356660176	18149.29614557046	12101.483491791518	27342.648339120024	12530.546861320234	19319.320700089924	17395.663136516767	18964.843999065346	31312.52057139467	19908.975288475613	13885.205843414591	14437.703098506538	36322.25561910628	17674.453409080863	17571.719088921374	27394.268304137197	20481.560335227474	27676.32176924028	32235.51800467598	16927.114280187314	19928.15068541593	13724.384350226901	35396.896029979114	
FineR100	16089.553168300501	17290.52894993838	51004.75018048734	9379.275484024878	13584.975859576407	19595.477845445996	17627.38835717261	15635.393274972668	18400.32408045037	19295.16216330348	13929.66664547038	16645.775475896262	18604.065708603397	15494.333886965112	21057.067374531067	15280.742330197472	20105.523373887914	20999.246693449168	20460.23311957879	13439.915685610567	29479.94951052863	24446.825914391426	41351.92783684114	19725.483036213915	19085.23472794408	16588.776131312723	
FineR110	12962.792636308412	11576.237574483239	11540.381531856707	12946.10342897754	10958.723667270526	14644.118513483852	13747.13094910079	11302.867662365035	17861.924622246883	17185.618506068004	22076.132253853993	20068.767686866217	18139.068647554417	31737.012807889732	21274.449453989884	16624.14025808489	15043.11396146103	20484.217515461733	16573.571113743976	35244.661767417	32286.948545288258	20539.03300103499	17640.656271024895	21193.143145391423	25343.856401602046	20000.256073031087	
FineR120	11753.271716158104	13090.42379754085	10635.638840524896	11291.934591715977	12827.17526086606	20924.64250217535	11564.547116989379	14364.847632693327	19603.32255788047	20063.31428262479	18651.175791117337	14955.674593047479	19157.598068804353	22488.485281695204	16036.852703693803	17987.90531361087	17763.392867688417	19773.4187163949	20215.60410464708	19145.885491982113	29184.80962221772	16375.046465754209	17692.671062355403	15063.458688748811	16253.242956893479	14496.690150180815	
FineR130	11158.665563095195	11187.05211986655	15164.62908840465	12713.99689062052	12273.128256139458	14908.916533117115	20319.724897175496	18926.56567393428	12774.64942328403	15754.793123032108	19670.620157978174	13674.757068292563	22778.904617932218	16264.730423176505	9988.92466170026	33243.41112475042	16006.97853181175	15624.013135172796	22183.825730682558	16637.147879681117	17516.314847245434	13566.615024680777	21828.956325620155	19856.939663685593	15401.955880027876	14411.68951539698	
FineR140	10649.401913077549	13065.05805961916	12498.507785638105	11334.970106946692	14900.899962130587	13813.886666258071	16284.87805155444	25169.35065188476	14127.918390882149	15679.864251469791	16640.449065467164	14685.936745154804	27184.063498337608	12673.831544968796	12600.152814238296	21485.116868808214	18389.752379839618	15214.010133442336	33108.48252970852	15545.856336654024	21415.412459972333	33745.354372027396	20474.57944631612	16969.576687809295	21995.2425446089	19030.553571138793	
FineR150	9723.568831569324	11322.966407328187	13152.621902843255	18091.96815792137	13128.662374314843	26162.6940677146	12132.704012387701	14251.915321525072	16181.734006153729	18026.78841862092	19171.417934315803	14128.978728598944	22208.372324796746	17209.27004309248	13908.659334373397	13386.059106670744	12323.449137314057	18352.99420695972	22119.94697453431	16878.15921099278	14755.21863114453	14652.230213294335	14180.377224673013	12691.698982628364	29058.201072487933	16825.419462942322	
FineR160	8603.727015372273	16347.613762321187	10159.182695352474	10914.097342371399	12249.354905891205	16371.634690661298	10120.854241036237	24241.96389805308	12958.682799806891	15705.835536720884	19299.844521874897	14902.280568894816	19815.144429376753	11030.586134392652	16853.561913445385	16576.625234608542	13243.679139115991	25477.62749567436	23879.085813323607	14068.666940687168	14280.86415611568	28551.905538382085	15533.294333290625	12872.376303239202	13534.272558857916	16297.309844885747	
FineR170	10479.32050617586	11554.278410475672	10900.593390095284	10494.373649869798	12360.840185184794	15350.237506126343	17358.416041868288	14486.619766997517	14782.03043584483	13362.858621095118	16686.51691231131	13523.02861843202	15488.698507076288	11959.697035382505	14571.989552372126	13840.017659294943	16238.25715786807	12377.132221967257	14610.809192396475	14833.67177541102	16642.094120911584	17758.132171425754	14128.22597052292	12970.774199935991	17548.829735891373	12694.63772629115	
FineR180	9005.649714030473	11044.492051609492	10978.941918845223	14066.017271485372	12664.766453962737	12389.359474284478	12794.670175058063	14098.570376560772	9065.848048490312	13059.553925716049	13388.36998870551	20562.418951362648	13990.997890006933	23465.07887421197	18115.20642020736	17670.38214197696	15336.346089214467	25728.051213375576	10596.68732691687	16992.960070487716	18500.85884671865	20240.15667563544	12039.054214855523	18198.269073384985	13258.021254613053	12779.219044392881	
FineR190	13604.694424129151	11131.521762312057	11347.883452553728	9618.13742267107	12930.579786003365	14404.055526438613	11490.93676368434	12687.839192910817	11610.35651290849	12697.640916913433	13629.834011396762	16511.449440141438	14168.886024099202	15100.785856815444	18664.54308301433	12044.427464982447	11201.814127846259	12929.439548913646	19672.677226153144	12575.163852122041	14101.906261987457	16643.64822826224	15645.135317769544	18446.26928545196	18495.244266877617	14668.06123332283	
FineR200	9695.781458073654	10163.48074345715	10402.993911464866	12868.323784553337	10475.658499363224	11015.004300545772	12951.726483306426	11681.552869330242	13455.746094100572	12885.616552013444	14421.308682952827	13693.668120846425	12398.20945490283	14350.01124524006	13288.769449066402	15726.59326768916	15997.371233790884	16296.439615217247	21988.653355513332	20258.82028303147	12583.535698074054	13480.82798357623	13049.662471186248	16451.54076041057	25245.99854903845	15554.056050548452	
FineR210	9717.634010535578	8767.081186004643	12147.846273121275	17153.47482164355	12388.747127576555	13109.00459373427	13804.791213421247	11683.79050794708	14593.27841784568	12824.444316769761	10948.764585858542	15605.95193085911	12057.698866625487	25363.075600285418	11694.472844692722	11678.407458666725	16090.138287336407	18414.966510389502	14201.250866291817	15735.604890908671	10887.098329723913	11742.645458346931	17272.836377876156	15417.839428658699	13514.916180026761	23416.762164496795	
FineR220	10003.50036059068	9825.23055010913	10128.68611633231	11158.736812224317	11238.455007360459	11359.25824777755	12800.737222276555	11976.72293668685	11590.452333820429	14275.925216070189	14199.901254659786	10185.97741110601	12837.56047762739	12054.7654537268	13372.012149569402	11591.160804897458	13549.544900089177	15962.34322625143	17378.52025133746	13899.579494350544	16734.362632147964	15086.058887663754	14828.440932950847	12393.65401441351	15113.733367474159	14144.785726356879	
FineR230	10914.040956522818	9279.532327861707	11879.949595478502	11976.82092041276	8962.021335180629	10715.015970145023	10005.980654058405	11139.02067105861	12672.521270308072	11206.775062856828	13621.82189884807	12263.978470099622	10952.6435543829	10624.768513589059	12313.361686292574	10309.792970869468	11120.803383472508	15492.623721986889	12625.94767186347	14094.466775170578	13248.913162666351	13844.312673238632	13707.618506701448	21309.95855053954	12670.147987794404	13563.156459541224	
FineR240	9175.050390716364	9534.332817980918	8945.426329014887	10176.064259767625	10100.909966007863	10779.909234432233	12353.340271176412	12778.81583028602	11672.422499885544	13961.160507870367	9582.962380379742	10971.511000072247	13474.690555051213	14711.448473155486	12621.777361271288	13166.47005908863	10677.870024181142	12808.048488807557	11821.380917711134	13154.939922124193	17208.07682729589	13464.787887885299	13991.578686415336	13535.461632751541	14797.917048160809	26131.440211724886	
FineR250	8980.734747042587	9846.049639844226	8949.407131297696	10408.484887761417	11623.719450824612	15564.781883248432	11985.342364022097	13562.180531591182	13573.070892476755	11650.906819243179	13037.127285714152	12423.997014289815	11639.456977127775	11525.584301400826	11681.435415054353	13520.865125437318	12471.484571461173	9915.51783400284	10104.925713640168	10843.976829302741	19637.596520111634	11793.362569254065	14896.041649744971	12542.092655965413	13401.749885593264	14098.08064492542	
MaxZout:	51004.75018048734	FineR:	100	FineC:	20

	FineC10	FineC11	FineC12	FineC13	FineC14	FineC15	FineC16	FineC17	FineC18	FineC19	FineC20	FineC21	FineC22	FineC23	FineC24	FineC25	FineC26	FineC27	FineC28	FineC29	FineC30	
FineR90	11551.456403371796	8725.246064517945	11530.021772282033	11147.86211213026	8820.092410293586	17356.49870430463	10271.129209011242	9595.025249327133	13262.769553725802	10886.23116539924	11220.464679735294	9395.391946257061	13943.929331765385	9525.753074900473	12712.217696442282	9528.512834640926	8755.42949412872	10133.554776390192	9073.30720790979	11127.768336580375	10465.340335508168	
FineR91	9005.70750823285	9922.21898359418	8592.017680185436	9262.105361550624	14421.658639601632	11690.374864757765	7472.623949864915	10238.223848513655	10185.304478391934	9544.62807775188	9766.913332801436	9503.432816395465	11885.392478902331	10022.132680728862	7932.398304410932	10432.58313090903	9662.49374267353	15297.240781769526	10466.020193228665	9663.204145224352	11732.761763721894	
FineR92	8571.942025585684	10320.604621668215	11244.507815698631	8833.01600810782	10782.71683067178	10264.040266611244	12308.430202489346	11998.554098549173	9145.021364161334	10353.411069229265	9481.749715412985	11416.967487117541	11551.521571066083	10807.639127756365	9742.18355648975	9186.528370652402	11667.699469462452	10233.915059603349	11197.507665911044	9936.887245219488	9227.395329719062	
FineR93	9884.029029898458	8095.536958752186	9314.826143866596	7947.7222071191545	7806.171606536998	13622.415855257745	11260.407942006465	11877.739549699201	8292.253050429252	9839.720797769556	11696.255482503891	9354.394918511642	9182.959237728106	9612.453766115283	9210.541468038726	9464.995205332822	11646.160137364148	11763.787826988977	9216.895851782658	11663.129065812163	9396.783608090402	
FineR94	11004.231497544342	9351.29502113598	9958.7093380715	9746.94654170891	9969.69042833511	9335.074558782608	10046.342197755952	11380.42733262316	9828.860738912072	8824.983281916793	12646.438525853368	8340.654789424167	9991.234683879073	10193.403191177282	10705.16711762157	12380.419861395263	12318.475505056407	9160.381713995715	10730.48017942628	10366.140707701425	9918.080098220249	
FineR95	10843.254922627968	8024.735618100506	9950.604718621276	6756.34800087825	8342.182537858049	9094.75104843322	8793.376117597283	7952.721009306756	8360.500514686984	9207.606533505314	11082.079270876828	8446.042352395683	10243.263564354886	8840.597315298197	9981.521981797707	9875.395354576664	11958.283601481058	8266.813701497063	10712.483647140947	9056.481695592362	9358.987942714384	
FineR96	11367.186805401234	9534.362509270844	12667.308566409649	10578.79551486659	9496.502389206871	9295.129488036928	9132.506048201205	9593.20241242211	8911.186296664433	10543.331969829258	8686.454652846955	9850.810138438543	11182.537302581399	10614.009458132405	9891.652187805485	10302.985520223378	8640.944255160193	11353.63488525043	11445.5619773664	11611.96361554036	11041.40949494948	
FineR97	11916.12626375578	10403.890151309695	11792.172276860132	9372.387804166572	7906.486291536747	8927.365944648458	8229.788690285923	11947.100942778072	8402.424636504891	8873.921683262786	7547.931733606265	9067.823389883997	8114.415595071568	9405.059294642724	8282.765564324905	9698.380039852964	8412.686781498018	12489.895365294056	9532.736010862298	8932.283507929607	9742.574681241786	
FineR98	8834.355186017669	8316.57767844896	7381.27423895376	11398.260605718508	8388.619054634362	8389.5342508604	10341.963047253917	9032.436868627428	8337.35456697459	8966.840424395847	7644.883419389171	10538.734099421774	9426.584500264362	10225.192375919067	9631.632412025709	10675.439847408963	9825.063088385403	9969.796394267063	10333.349211579116	8853.466298352028	9468.092216681798	
FineR99	9189.760034518687	10035.880474384083	9028.898588892514	10776.980181156117	6794.069686380787	8335.599436888502	9020.11250458645	8194.656354943092	9755.301027514393	10758.670825987374	9129.799902694085	9413.712854493384	11974.722387923577	10912.47561372152	9536.417009712914	10124.105215142032	7692.513499523488	9306.809610793394	10159.280897319964	10549.346547943429	10676.981231507461	
FineR100	9833.82958778485	8322.800710240428	8674.123316892565	8743.186936422579	10525.542102196865	8493.417883214886	10441.803730579482	6891.484839756156	8489.40312919468	7774.358252158327	8805.909539565631	10210.097152362503	7191.987653499242	9090.520360362178	8375.488877590673	11376.109747597651	8652.128013301779	11108.994889734482	10734.687747783188	8490.745739704982	12749.961481154116	
FineR101	6217.8517713294705	11000.129710552006	8105.432782492576	7941.760114982897	8425.915757353709	10232.030490482735	8879.053651715838	9207.20836888213	8677.521171451313	9003.858286995828	11845.569954153423	9896.082983154189	11521.221771068602	8129.66538949197	9261.403804071893	9561.549690699136	7757.621794099687	10146.833298373245	9790.439016117893	7854.311674964835	7716.219195990562	
FineR102	8119.962947838016	8999.700689932459	6875.0805069017115	7120.071129986091	9390.246049251504	9614.35844122295	10085.313950614334	10495.075021180914	11444.386841860318	10786.095693795476	7214.962805366906	10584.033075659581	11337.213358645047	8263.005157967704	8150.881977178447	11591.4698555407	13300.912119508266	9726.058576986423	11951.192761250528	13700.212818327162	9878.354884729213	
FineR103	9463.716573501137	8304.145254438834	9723.158590167994	10252.34057037058	8761.362075527488	8727.250936051429	10239.394813556548	12669.30773711677	11094.709702986305	8473.135311271346	11555.16073707737	9018.191967963043	6964.447624280271	13060.246545811948	8083.300525149555	10493.602711877285	7232.258471806811	9915.620045756297	12741.04448097344	9963.673809000182	9283.17608852683	
FineR104	9768.991634070842	12059.611977731103	8623.26581839196	9475.484159961356	10787.834326401977	7853.470498473496	12269.370602843586	8582.454349190626	10336.269605228485	11855.138360322617	8318.828929351143	10551.803672682512	8266.464427554924	7046.0059171920375	11957.710115753684	7908.231375927179	9555.498347242752	8579.229628560235	10339.057152900163	9462.03392391837	7909.963940252956	
FineR105	9028.04876728461	8010.789740759774	11431.611831097885	8503.090191239744	8567.288708361644	8696.937699114598	7514.1036498467665	8544.632793913199	9293.286934548125	7073.427573617341	11758.880541680652	8427.644706340836	10400.647970853668	8626.109138522068	6411.961546854875	8830.414730708391	9523.99489000876	9449.617715705223	8880.53513212995	7970.880599207633	10802.80020511231	
FineR106	10463.35576337535	11080.323169261676	9225.29817983211	7282.070852898892	8358.154392614995	8362.22309602037	8572.302724095234	11156.021595914037	8395.034404794262	9988.527812878301	8370.166759488162	11523.054586346037	8457.066857956766	9300.904216755664	9748.95063498791	7974.012102316867	10353.184573508004	7612.998055309123	7986.200469687384	7374.121752059759	8613.420823551496	
FineR107	5943.229092914	6350.284754945434	7458.362507873125	7252.879272866628	9671.473130619032	9261.094018270034	12188.966669158284	11356.315090401695	6847.381690546755	10630.396686627531	8165.854972259313	7684.778519167924	9449.98875782272	9362.684479894999	8359.277883573337	9211.726881214616	7369.558409600852	5928.381270342125	9066.796931343977	7975.882432589746	10931.729476921117	
FineR108	10572.683956703024	6913.641732399889	8478.76099274262	8760.801788128265	8550.497859966354	8146.906542080808	9173.905939000224	10657.400405766239	9892.013764350017	5968.479481290578	8009.739932355462	6616.950299853019	11226.17309596535	8296.41349603022	7763.047782703545	8726.67982187997	8003.838457294981	11585.82097045348	7951.484040685019	6908.427966539079	12971.569054723956	
FineR109	9221.444516364285	8031.905336351315	6952.740259227519	8667.441001766743	7580.369331958189	9139.521681726428	8080.204399170311	7554.137044715907	7476.972697825673	6417.959345292706	9096.974222936671	8054.685116680656	7016.033603952279	6455.738572755157	7473.818588918088	9403.02970481453	10980.095750406832	10336.331204300337	7437.61585173792	8871.77814072757	8734.473141251192	
FineR110	7809.765605752816	8705.690847226977	10198.064494074993	10617.99379930114	7597.987146834419	9302.972099813825	8240.944952709417	8229.632870639774	8814.887753913845	7662.862846629906	7221.722765579981	9010.685372153132	5594.195298326441	7584.076116327971	7083.413782277203	8153.8085353679335	9514.270258165696	9343.649122635392	10757.651795515265	7670.816903737007	8611.34218021964	
MaxZout:	17356.49870430463	FineR:	90	FineC:	15

