	CoarseC0	CoarseC10	CoarseC20	CoarseC30	CoarseC40	CoarseC50	CoarseC60	CoarseC70	CoarseC80	CoarseC90	CoarseC100	CoarseC110	CoarseC120	CoarseC130	CoarseC140	CoarseC150	CoarseC160	CoarseC170	CoarseC180	CoarseC190	CoarseC200	CoarseC210	CoarseC220	CoarseC230	CoarseC240	CoarseC250	
CoarseR0	1312.5483688330132	1061.4430285557376	1717.9939032354355	1560.7702472205565	1613.3223461877976	1614.6934319482575	1575.7699403942422	1559.93367264846	1734.5993752777113	1663.8833369831352	1668.0491168701676	1563.3762485383777	1471.3263439351506	1542.3922229217299	1491.5787042156514	1594.0570389579443	1539.6243056100802	1509.9313783426771	1491.4012333727521	1550.958296202383	1607.239026170725	1454.3145186123604	1531.699145563133	1460.3216459227917	1546.557623108946	1453.1474435690734	
CoarseR10	3472.47686410749	3270.5340023488247	3184.4556366123547	3334.1266700336755	2863.42402052292	2640.297038584261	2851.7499370373307	2795.1251428679584	2806.0543742713016	2475.001285364384	2656.204826278878	2395.3804234851727	2350.542365715469	2666.0435895217415	2493.705243134417	2424.494136382844	2408.24999710695	2281.297516274437	2260.821815029937	2240.464763335485	2278.161196751856	2303.0620961372965	2492.435131773765	2337.021387851253	2255.158352723375	2114.625703942389	
CoarseR20	5362.199725405658	5386.281777815211	5549.970760832648	6333.521358220351	6464.204695176066	5779.640311362521	5484.807907971686	6179.767694536118	5597.5730082864875	5266.416681317826	5375.30352715447	5472.080549590752	4913.762623362593	4316.086883164774	4312.726598969366	3860.5477025605087	4243.141580112547	4454.514036702238	3750.482671509118	3794.7712373333193	3920.1854289280413	3868.937698201936	3843.1543611148627	3592.37056601853	3607.030298920945	3381.890295011822	
CoarseR30	9571.673920379866	8472.609939027398	9266.025775426666	10779.67398037206	10214.942972768302	10348.059040800626	11645.66830542507	12428.121651922102	13090.706227015513	14643.433548593692	17640.942484512147	10566.45817531238	9516.881096972196	11072.119855117078	11604.320461940439	8935.662953121793	11275.945503674806	16538.303508651206	10284.121850046016	12111.398784291487	9401.93729631748	12382.362344887133	10546.845719978239	9160.826234556043	10493.953339185551	6260.439333769609	
CoarseR40	9350.627640237128	10487.225498209089	14032.728773177678	16705.81911481523	17148.42319496707	22187.689384282967	17611.54115229171	27718.95139696316	28603.55166361244	52214.78702613858	36766.737224210236	56408.96945123693	42942.4516457729	71483.81366171247	30541.324450407425	38046.89593720401	41789.241501322984	34657.65864462209	68086.31863996241	43982.280355472976	26541.70459895893	68438.25662422231	25115.071283955753	23896.737148786007	31018.700221085204	16335.179004813215	
CoarseR50	9863.729820193555	10317.383797613917	10733.657311580548	15770.756992814358	14105.238454498805	12748.77835196567	13799.56612492023	16577.6179787138	27204.74437334747	22581.165650290226	28717.263218859916	25431.67849255734	25752.789826795164	28765.41612948199	14319.431055600991	16258.074208327398	18828.79093699043	18624.258183579263	16385.719259496607	15028.80704003783	21864.805017640356	13908.692139080244	13417.836158523276	18175.816606467666	13476.28974086583	16585.25081954089	
CoarseR60	7163.284251072476	9011.003414245335	7689.234466912159	9885.427239697425	8924.67871915875	9307.125383037757	7878.502507605982	7988.570392255898	10673.331251301068	10182.94677251332	10527.537754527182	8846.047187260085	9016.734362868632	9233.888786810257	10783.243200084204	11837.73887864047	10652.440822649718	11653.154782034486	11654.570051217192	11617.196622389998	12227.965570057457	9816.53979323345	12328.992204669554	9112.925329382862	9274.573180913621	10110.19131925069	
CoarseR70	7024.981642526477	5882.318403338136	7198.642212882383	6680.787821233401	7530.562328400575	6265.217706693899	6975.94251349411	8659.521842224918	6880.208905792264	7313.515366316919	6653.911007464231	7881.289312441572	9554.058203122633	7439.807698850521	8279.752104845686	8119.685159367052	8574.966995943341	8657.742484697063	7949.744672352042	7211.864413301811	8521.66085954444	8013.594626955609	6994.0118148714255	7417.4663385445165	8585.381634937643	9842.085107547648	
CoarseR80	5384.825761111241	5472.183998148397	6277.351572528583	5441.422934804657	6383.190131241796	6128.262645266669	6422.675216936457	6767.97727767123	5945.825356886334	7093.902366489722	6600.15588475722	6768.328110988235	7197.600050356337	7151.848143612803	6186.095473764073	6496.609408986742	7186.335802328683	6211.1115224922205	8311.486862866544	7238.560050244958	7219.173300515528	8236.718386798337	6711.804883116071	7584.913903734944	6774.266746188245	6784.9953248285565	
CoarseR90	5392.504005773897	5141.367975961295	5161.2310480989145	4608.4947559307775	5495.434773119521	5338.104506934236	5633.4520477677015	6337.279720155611	5392.957042036348	5609.786808266274	6179.904214899827	7020.844332502467	6032.996295881473	6348.906518835973	5920.652115095367	6058.478699069537	5769.881387234143	6058.53053972197	6210.030866777415	6093.439612888102	6304.419335067434	6678.717877213174	5609.250740856734	6185.715592404828	6060.234425027175	6956.608384666204	
CoarseR100	4642.304642275821	4443.340678905567	4917.521732362507	4584.457293659925	5243.413388553316	5072.913574069043	5636.828096704868	5200.016779538324	5495.134588025441	5295.939975500868	5540.217382978193	5422.970060158388	5094.694460013022	5080.397206543282	5408.776101622077	5531.977811620936	5425.833983979021	6285.265098328548	5842.4196721106455	5883.961513820387	5417.749502262289	6495.323984634328	5948.9873210377555	6808.915238714694	5890.993917270238	6227.43918952557	
CoarseR110	4595.593955646222	4390.787377987606	5048.2302388566095	4494.080295473144	4523.932384173464	4721.991034093506	4757.8944662169015	5560.337473289853	5018.545196904396	4822.064266770541	4738.062575092397	5114.7910869838115	5177.337178277899	4841.800532041055	5434.60815723308	5685.692815861926	4910.692632602632	5092.565144023431	5985.666968635831	5044.869337978205	5881.400761509502	5462.215737514963	5307.6199984481045	5650.337362296475	5110.347274241077	5666.299685372505	
CoarseR120	4279.916191542295	4236.88832730814	4674.846554359636	4194.092432015599	4198.940763102086	4885.990368612709	4696.344130499108	4972.620980589989	4211.7296621506575	5376.214898382263	5146.103146353106	5064.434992897083	5189.562578076403	5074.331458585871	5146.2657875557625	4818.048321683162	5665.576201954069	5197.950178611365	5629.378268532753	5475.248939580751	4745.08848601199	5625.562893726534	5444.929341955649	5383.8881070627385	5137.856657612732	5266.8565743707095	
CoarseR130	4033.5300409288584	4123.138694267973	4254.808254538987	4213.882629194184	4318.359520362469	4261.67656498443	4443.33961768538	4566.067045296779	4664.655726848403	4915.6601922127775	4574.037805433837	4796.932810879214	4266.382759113523	4972.221530220785	5122.557933051388	5166.929199588762	4957.777554917244	4512.179093205033	4835.9282163867365	4511.893191046788	4631.569961144667	4672.557866183441	4863.198545712694	5276.916252214522	5212.971429187553	4877.511924725909	
CoarseR140	4197.663268566863	4077.0245104051037	3835.7922749698837	4335.720499987608	4386.441459895381	4573.0331013324085	4339.51083182378	4418.588127048001	4523.956984483005	4297.026020021385	4257.542386905968	4073.832026042924	4114.874887265344	4537.021663649375	4280.629256737434	4864.760920410016	4856.344391004928	4451.571370038388	4440.44700864401	4735.794971669394	5467.716876711207	4771.759789893168	4434.33094220393	5394.111451741221	4475.252403049395	5141.840333503586	
CoarseR150	3877.625661971243	3903.9871295182647	4501.224853496659	4092.791152173338	4157.10975426001	4045.500684346083	4171.9548710960635	4083.109134622719	4225.348159813576	4318.112646996767	4337.409955037436	4209.347738913621	4379.1424156590365	4184.090908518193	4594.9561180729515	4474.454413438319	4523.456390102463	4670.872172189861	4886.302281093432	4566.7630042428	4297.8092680993905	4468.371542946123	4540.372112386061	4314.061112410049	4601.171513457606	4611.27282731645	
CoarseR160	3878.8805532299416	23439.104478924666	33156.5799009201	40645.763544900314	56265.21437218287	148149.41845734857	230208.61297848632	147542.69977797766	67361.64060502089	48517.87666419739	45610.92177799127	34813.36177318411	26579.769482037434	25109.396603401397	24125.61487761332	21709.227603517138	20050.881899658994	18750.53239008835	17547.26702669718	16543.960002682445	15292.634769730139	15441.199070733679	14772.058554446065	14263.141892226327	13339.011987114756	12880.769862559126	
CoarseR170	17760.90052719665	22431.920474622217	28651.368569720962	37086.17341365715	49423.13212809474	70366.9333584905	78318.02899679997	85975.17577576215	61988.92390960114	45828.893041098265	41403.63503858497	41047.19706163991	32258.048560919276	27682.923462925206	23794.165823352163	23929.26791857023	22959.546402336535	19910.271965852877	18678.257345188827	17742.811058938285	16810.550836226637	16095.107605733772	15384.012973022654	14380.780665596181	14328.805622825195	13824.867818050807	
CoarseR180	17897.902163753584	20678.593551482598	23763.81980504486	28746.547119732077	33422.52831746169	37559.13915911547	40571.34829851153	40734.519641825886	42040.387819333926	36545.11259757424	33396.43398530763	30583.867195145132	30061.24398606466	24702.25403675585	24092.10707726073	21438.020744621026	20268.52427480328	19969.262361220593	18948.223360834032	17423.894033087538	17274.32278738223	16564.60731030147	16446.92552782753	15407.472802872531	15372.31578835058	14478.773206100299	
CoarseR190	15885.446142601073	17960.059292410828	21048.783669133132	22675.866676942358	25049.770790103496	26917.525406815035	28627.752906490576	28455.59814282668	28299.697400012512	28971.67946937021	26473.992765898598	25382.018036212296	24129.805276691848	21340.927806652326	21846.343888525716	21934.508175222185	20030.713472399104	19207.086356378306	19241.414743452282	17747.715175321056	17121.170809127078	16598.485790888368	16121.206215742412	15609.618178148625	15208.986214811379	14824.870250723325	
CoarseR200	14151.813363113335	15938.86688797533	17521.951157092277	18900.488396254517	21105.6984687006	21540.70785809102	22865.976900888152	22177.987875826435	22314.008606718842	22084.756495347156	21753.634423210224	21252.975586174463	20697.215606441914	20173.298594008225	19578.41437661034	19002.786456152597	19191.99084664943	17958.690335074327	17463.401772634366	16978.976618841563	16570.415408331755	16176.48843102517	15797.733718133077	15795.222120609727	15665.05447008888	14884.785080659565	
CoarseR210	13277.339499004698	14007.389698690356	14885.072701614794	16309.310675816276	17091.901866760116	17818.085934939198	18162.11055994577	18454.84306885623	18591.80405924724	18543.28261988075	18443.20000624607	18312.270845246436	17670.434409821566	17803.656928064895	17522.545290672613	17160.966067628346	16929.022646371497	16598.07619363747	16290.160117155305	16024.934995982654	15777.752119966275	15026.298382633553	15290.801394176875	15575.525468430784	14888.549162983883	14730.305431113766	
CoarseR220	11916.821481946852	12939.74948535733	13756.784604757258	14493.40009288654	14943.287841025081	15482.796362222038	15729.92082631137	15959.040441723713	16049.367440099459	16143.829267517243	16149.83266525326	16131.838327784153	16026.795434062136	15879.566658031674	15787.317303360223	15609.797308263822	15471.868726881306	14985.139645024703	15202.598591459237	15017.148567285842	14890.574374812124	14749.898927406479	14672.52858793086	14577.044574334299	14443.264386371386	14348.073911073354	
CoarseR230	11158.189009630189	11928.505635179194	12461.181526310493	12971.481763811551	13612.36813005845	13698.872960978268	13969.960332339448	14156.218278534348	14633.0815421784	14692.218779410428	14438.927178817376	14434.370183817375	14440.160415993265	14418.310813187503	14403.244834498339	14321.835931731908	14264.797922249503	14211.991146783219	14153.237057549859	14078.852999290017	14051.550085188765	13783.260708612399	13958.035503631727	13890.881130874764	13884.95022523104	13872.840733738816	
CoarseR240	10406.35845066438	11036.548320243453	11571.667542236966	11816.458355407784	12166.836180971532	12424.130988927334	12633.915119828285	13045.713951640751	13028.647115742702	13061.917490005642	13126.618600491276	13151.715076749662	12924.004068951608	13201.24992126646	13229.735746456736	13226.4886577832	13228.623171942727	13251.570904305929	13217.45078074843	13222.523607797937	13266.098056976725	13004.917072390468	13295.956126989591	13308.900800180672	13371.603909467754	13412.456179351977	
CoarseR250	9849.3809952346	10298.130443727856	10654.592935380575	10949.740911773019	11281.786288679506	11191.45848397639	11583.312364225789	11761.323739124107	12050.698479258432	11979.79803954094	12082.633106773068	12130.727584067563	12202.438473917775	12234.911505210466	12544.161859874499	12099.976815106278	12367.851715326602	12205.178630765206	12019.592122291504	12482.03096984099	12532.173116773449	12584.007810905616	12675.599669385849	12722.852776700043	13204.24291063072	12940.24697135742	
MaxZout:	230208.61297848632	CoarseR:	160	CoarseC:	60

	CoarseC50	CoarseC51	CoarseC52	CoarseC53	CoarseC54	CoarseC55	CoarseC56	CoarseC57	CoarseC58	CoarseC59	CoarseC60	CoarseC61	CoarseC62	CoarseC63	CoarseC64	CoarseC65	CoarseC66	CoarseC67	CoarseC68	CoarseC69	CoarseC70	
CoarseR150	67471.07163321895	4228.344228015577	4274.71556725186	4478.015253817352	3873.814006158447	4022.2912446205487	3793.0219649453093	4035.1707310925462	4552.205033931131	4125.092142975507	4683.44556926522	4096.450712313816	4016.079704081257	4240.19870454439	4094.6549380042143	4269.798068717025	4052.585006337406	4219.821653624409	3870.078642861705	4215.672293932719	4018.728090092042	
CoarseR151	3966.3998660637208	4642.884400233652	4017.8495222413558	3959.0093449388683	3947.1814320328767	3848.388065288462	4075.7521649530295	4307.330991952862	3925.3113090942034	4253.259894742798	4423.8805743074245	4418.8915486598125	4266.554104006855	4140.640659999153	4263.0942405515025	4156.212705038161	4411.591914217769	3955.6458901121805	4047.2716287149565	4180.457664779181	4206.714169307325	
CoarseR152	4495.896346913952	3982.481093140557	4136.089466003879	3614.777172120467	4241.65416070024	4098.7645777615135	4030.8143721886513	4315.8634786367875	3803.1341811000434	4178.392977974109	4254.062411359061	4450.900808938336	4007.9735763406557	4179.767249804328	4325.840419695803	4387.846421852172	4125.682150199787	4318.169620829858	4047.239236126961	4424.890106599745	4528.04454757845	
CoarseR153	3762.3719838988472	4261.105654514216	3830.789267330798	4071.0098429081318	4119.1933675514365	4016.6933854258873	4015.685219190094	4138.13844441522	4002.096513442406	3997.59276310601	4394.820266188553	3939.680887772226	4189.334082168821	4561.396625475797	4332.0493724977	3923.1065019690345	4323.139228520179	3830.538899792459	4153.231317337073	4158.046974608693	4188.860484430173	
CoarseR154	4219.021384765217	3897.202334958105	111906.0654670371	114398.61574878702	116208.5201711413	118006.77005950625	117784.02668094037	114144.23901750345	116289.05662866347	4045.6153341901504	4060.3636334204766	111405.39092643409	107328.47070910846	104454.93755875321	100039.3758325927	4424.020591222814	92396.65986296692	89318.28979493445	76680.58573202648	82446.08503287545	79692.77419975823	
CoarseR155	118739.09688303534	123577.1514887051	127904.47437717555	134653.29162369415	136833.8292064014	140264.45533555103	140723.7954107729	139889.5749440844	139651.1094146506	139425.36801173663	132372.98586776835	169267.46589977067	159793.77381900282	118684.32851396038	108710.2273619121	105311.73490847998	103638.86361348668	99511.28433841684	94265.89851394569	90564.44461792719	85793.64341255125	
CoarseR156	96782.19613476958	145447.63966622672	153161.113411104	162854.898911723	169111.1800547563	173214.9403424257	177511.64525754898	176941.4842297613	173635.02928071914	172953.15545737205	165646.01261945884	158686.80520422215	148797.1926089397	141472.1396702013	132061.74543084274	127406.2307019614	117184.20960128687	111458.42984451153	106145.62842520265	100614.39963441169	95155.58382267525	
CoarseR157	152880.15306114787	162321.14385412025	179544.64988328077	194580.7985803476	218915.69041116428	230881.12502418624	234855.48547267058	234212.49832466707	187654.30182803833	230078.65072701118	217474.2070211606	199563.21433229075	181906.87569561347	169825.19351640143	158137.26051248377	147722.99085903002	132538.4233853315	126591.59735628363	117442.03053944967	110432.9336135488	87688.57991776774	
CoarseR158	169964.1436127948	193479.7681433292	211733.15935212123	246174.34198715075	288394.555081846	313583.85599169036	347821.10451622674	359191.6687052424	235199.4163090095	330800.07055497204	303345.3461875223	263223.51484023157	234637.98892987598	207139.57002607745	191709.0476270369	171296.89560949427	149570.74776059992	141151.45328513315	129419.36328285445	122907.10618659928	110798.11481060734	
CoarseR159	177475.01064598933	202902.63542338813	245798.25618641553	293689.7422254092	396415.9431708064	475686.07835019386	626915.1037399699	762672.465741356	682125.102895356	584988.5117021782	436755.28654827847	359998.07596615265	293392.3701125111	250813.08211925902	212824.95867500937	188387.12898139737	170862.2140456037	151927.08845425022	141765.00340056146	131548.6192528841	119982.7686433457	
CoarseR160	181823.22175766373	206453.92770472032	238772.59477530612	306523.43976407	1844913.9307199963	512289.20176433923	807128.8690388636	2112206.902744142	3406383.0084122955	1077145.719018555	716564.820231164	447313.55198909796	347326.013519517	291071.66699709394	239353.29536064464	207056.07065687331	179481.19987864443	160677.44533891586	145570.5638207632	134670.9061634906	128266.989829366	
CoarseR161	171216.39155856753	198645.1481424756	219320.6308159301	537211.2154450985	319945.23867720296	400817.69893279136	541852.3268958402	667079.4267090401	824970.1670185341	706271.3286373534	543339.3534994721	416898.2455553719	333617.851971153	273132.3883145164	239400.22622552322	207480.51370857275	177204.52324522732	163119.97682146504	149875.5314980246	138560.01701663388	127034.1121314526	
CoarseR162	154174.07352876686	174682.4101477719	191945.50777570065	211524.75751343422	251885.9207095648	271083.8660274384	309825.5050734365	338007.47838700924	375127.1556776839	354939.10542366555	332481.60436538333	307087.7783220479	290275.6806949554	245081.6190578151	209043.97213540235	187125.08990588682	272375.12409583415	164568.9078232545	143002.55673341866	132422.4644079183	124750.85623540034	
CoarseR163	143358.50538223132	148124.09210381526	163475.8374879272	176193.3776113202	194218.4624270849	213582.7177455789	220008.7638746813	235580.7960666782	246260.4038657413	249433.81725257137	246289.6253548429	185250.48363354092	216088.5530835047	205751.31334010113	188251.58452699165	176304.39782028052	164821.58736153878	150300.1965337033	140704.58900891527	127696.70451575254	119856.25326358256	
CoarseR164	122816.59001003832	129884.89021392114	140231.42755428096	148267.49410585288	159405.14976461453	126907.5958361271	172127.6030134427	184105.83386359797	189395.54179019106	187740.97753826337	184320.99765765914	183292.9481912529	176470.36615293752	168606.88504082008	159402.66955715299	148633.43137759055	144780.15677440207	132794.50169636452	126306.38971247412	116267.80142007857	115737.98102527516	
CoarseR165	107945.54073095994	116350.48866686273	121589.95045092785	127035.19164142576	133838.2887634771	139039.1739470999	143274.9085712914	148341.9537948415	149901.1984917471	150007.84524343253	150719.68038295524	149537.52733417213	149037.1176972797	143409.0607575437	139547.6992057598	132969.20881853497	126852.05485219668	122122.9667201078	117569.57542810553	111027.63013148333	105142.31335242136	
CoarseR166	98049.79609743215	101737.690618117	106819.21924447866	108482.83965821203	113152.43044294152	118221.15474808481	122365.73685957941	123268.1831727026	124963.88646815278	123738.26588828623	125720.2532003739	123980.84963584603	122667.07386903443	122068.22349432197	118973.39713968575	117223.97445759684	113260.63814761204	107064.18738617498	103871.78239371712	100838.32325917769	96293.92773721095	
CoarseR167	87499.37259501344	91028.11779593164	93365.58993751276	95999.76555724828	99418.08901608958	101330.83777162137	105452.19777522418	107299.80182975743	107967.24549745196	108102.24134357394	108818.6660412729	108818.30304191975	108355.17324826718	107125.493105828	104548.62193612847	103550.02754583018	99798.21655001727	96994.90053406794	95873.93788622624	92643.24404438898	90163.83285219522	
CoarseR168	80217.90817527175	82253.4236389091	83556.3264648925	85970.78448172421	89532.31664807767	90366.3962685916	92073.85354063679	93289.88890360792	94028.7835722542	94622.58607601297	95039.54912693553	95183.62104669702	95846.4836267116	95171.52746344786	91510.76526371743	91386.68278179484	89663.74130302659	89136.82693864507	86578.0057963513	84254.92268410158	82179.64939294153	
CoarseR169	72632.69632672178	74910.33828993254	76184.80735584653	77761.44117942761	79468.23629460252	80827.93474525274	82480.63418169755	83117.08608944372	83510.0472997112	84386.71478540605	84233.1486708321	85160.21821944154	85105.36675486002	84239.49452992929	83462.71147897109	82270.25012208853	81595.85259747275	81317.22998942428	93182.88860069402	77686.97559499042	76316.90758974997	
CoarseR170	66864.64914237635	68694.57344818863	69679.23831416074	71341.84990330349	72271.45739497774	73702.38293298257	74981.91196425499	75830.40857764057	76138.61386904599	75784.6902513713	76163.299083251	76449.09669448469	77041.36692424174	76926.63681960864	75476.18440120504	74875.03533180956	74675.83694350335	73576.60658628831	73098.73096427615	72752.6877839214	70801.01103438679	
MaxZout:	3406383.0084122955	CoarseR:	160	CoarseC:	58

	FineC0	FineC10	FineC20	FineC30	FineC40	FineC50	FineC60	FineC70	FineC80	FineC90	FineC100	FineC110	FineC120	FineC130	FineC140	FineC150	FineC160	FineC170	FineC180	FineC190	FineC200	FineC210	FineC220	FineC230	FineC240	FineC250	
FineR0	22862.75376652333	4072.3999854701483	4263.575884378808	4509.557200811471	4201.019877563779	4644.030333824152	4091.321855145052	4368.910650537115	4631.561215184578	4236.443057854242	4469.847121609111	4592.154708256618	4369.816167972485	4462.073613440146	4502.843020705213	4008.61491310077	4275.519907562438	4635.476273874913	4353.912314866823	4234.50115661211	4047.6672190889403	4364.765060026596	4899.403169365349	4119.032775762503	4714.798823898543	4157.225147177008	
FineR10	3965.2098396174497	3921.6887941950804	4152.922056701594	4163.648776069733	4469.0690895677635	3802.698382262986	3928.6787095534355	4542.8651547730815	4115.043856032243	4130.377179475763	4142.644591852711	4256.907287775827	4306.3475866397375	4211.273495650405	4201.417762119214	4243.095935201381	4663.109580373215	4328.280690288157	3928.7156797719435	3885.7388960174844	4387.397187260907	4645.054403675208	3952.4166042899055	4335.138152215197	4438.070673785078	4473.32645846426	
FineR20	4132.975100884239	30779.104811965575	41186.3282987186	50383.664633598644	60218.890172921805	72741.4433186818	84235.54210672167	95964.01456190702	111207.25334241016	115838.15576178675	125150.96127822372	129001.74176276868	127202.63484179732	129874.848287746	127077.6060910091	122963.00496817735	120650.11883247049	116728.3393487973	110827.1548476137	107005.86709287122	104484.40867349623	102088.7311437882	98347.6512809715	95912.51221816683	93552.99197127607	92353.69469581678	
FineR30	25529.564386534865	33534.04385105202	41815.22546512494	52052.454435797794	63314.438348058764	78259.52715241333	93435.37406955022	110803.31981191594	130989.82633391256	153080.80088632932	167798.39766377257	177980.0368398476	183247.886660709	181451.4266262988	178248.08539167946	169307.11233881628	159340.5748578045	146554.54201514646	144245.4462296276	136708.89263726684	129610.57939945954	123093.5528161216	118929.64235682301	114704.13603727396	112198.59199051635	108766.57131910531	
FineR40	25843.45272592906	33898.6034440613	42136.88943915992	52532.02164991886	65579.75872846662	80481.15916866553	98091.65677525927	121010.83988680651	152586.70150013437	176547.2672309097	208340.53875603052	237044.79656158466	251367.85792937013	246112.17375932232	225929.97523965334	221457.95501387204	195471.1084747974	186477.19644708573	173070.34779789762	161374.82409907278	152911.51698674998	143863.81219812366	136452.0282050563	131894.21707816122	127931.9412191615	120905.78253334288	
FineR50	25876.225649251017	33969.826058580955	42686.32194483965	53275.61332926873	65621.05722165389	82409.06959236019	101246.34292836832	125711.597078047	162893.4283609568	200654.0135386563	244296.90226964932	304502.4010441517	336874.3978431412	327466.02877245145	308749.49392671074	261981.88756432137	238570.9916330577	216061.56530026346	195612.4908010147	179943.20999562446	168927.989171932	156845.6024301808	149022.71695089882	143313.998554092	135302.32192647364	130376.6440238845	
FineR60	25953.87487499935	34152.70817898101	42677.68072382048	53808.089024687906	66242.12877106665	82363.7729120059	103371.72040915709	127964.37716527865	165234.9583575299	218465.7098801609	293497.0237644326	349408.67988148186	428643.9957340641	448963.6085467373	374207.1265458373	331540.9249333488	290173.20420622296	247785.63256361856	217392.3855856605	191189.06144064458	177730.58536900667	165593.9882398406	158052.78489109344	148310.5678240829	140847.98616815306	136459.68637802807	
FineR70	25947.621941203535	34022.969741255576	42682.80170030866	53319.928194029366	66511.42581466335	80955.95858664426	104508.6992563746	128195.12513120503	168760.28354054634	225376.58926095135	313486.40267507965	417944.94012127124	608830.7317084211	568554.5073058323	475836.8258393866	379502.84375198244	305128.06491701154	270237.7432782019	233328.3838398837	210560.62872755842	191575.19867282442	171761.75168268665	163560.45524020272	152801.65761665386	148708.44135997418	141078.82260649253	
FineR80	25948.716654778105	34020.801055697404	42478.309793241606	53108.762778084754	66506.63011840681	82499.37581915998	104036.09399473466	129879.00550917047	173900.1924642242	224102.81703172706	191368.74573823664	475548.18255352543	774120.7782907285	774149.4834206196	584866.339682938	430289.5669952598	354013.3082439036	284191.56782392797	242973.13256244632	217982.2202979249	196385.83592439687	183254.49088511092	164370.3464000179	161580.10725100402	150111.91227513077	144443.61417436643	
FineR90	25997.670436473705	34095.45232550883	42793.49865158983	60266.11524548259	66299.8893930863	83454.25572524927	106035.49386375606	135324.9250183804	176988.8160720077	230054.3711248613	347479.579561243	571200.3229942749	891975.6508133142	924221.5325215436	668542.904670011	460494.4343720033	347210.2959685326	292309.44521979766	247436.1387951963	218886.5042236384	201674.505126936	184894.50251109016	170074.7617647837	160027.27428399268	151489.78563584303	143131.41283255423	
FineR100	25921.581756519667	33961.69810514289	42903.42494743193	53134.674947225096	66543.48657182365	83843.47222683197	106338.04785314071	134522.76657498936	170581.476486637	234743.53061627026	340658.38900576043	630515.862944508	1252528.3402954375	1252574.7860286003	729776.5210269523	486764.36490233697	381015.3179335445	297522.188658094	255431.938646871	223757.00528428846	210298.82087022252	182426.66383805603	168323.4545922037	160860.32896366474	153926.9558874485	145441.4895257031	
FineR110	26061.02915104678	33991.223587630615	42948.4152702095	53199.728385063194	66641.40303655967	83280.96670817825	104842.71857875344	133099.72225203807	169221.65025072958	230686.85037465795	330863.35319972504	584196.1193660507	1703410.0064282825	2539285.0481101084	807521.1758450685	536008.8110698876	383794.0768185659	306692.13362885866	269025.4880433406	229191.46099245324	211240.1105845053	185780.92400496322	173809.27746343726	160813.63973885393	156159.76537685227	147610.76675344	
FineR120	26155.32437762525	34019.4992449234	43189.8196675792	53259.87753203479	66729.60477813541	82316.92439091261	105031.59499983901	132092.35041987084	175349.33529934013	242457.00566145842	314553.31566509424	594614.0221739255	1523072.4342591194	2692645.933835341	897545.766397334	535941.9070410265	371190.5542352124	316817.68086168176	262648.0806492362	233967.06751003503	211178.78775978548	192253.65575943215	176394.13126358803	165705.68592919933	153837.60451995212	149573.80985727327	
FineR130	26101.311304150542	34052.104271026175	42753.57402885206	53687.470423168335	66450.79075919215	83698.44716649917	106128.60720953495	135969.20123090586	175859.0963903643	238693.69583766776	347119.8424624916	598198.4579232283	1794509.604940086	3405394.220938304	885223.1357121209	559839.8274796393	396417.56200859044	325023.8718989568	255283.66465209296	233899.13363879986	202873.3780540611	185263.76207575388	175987.86087584007	167959.1404476761	158127.27441460913	149376.3702866019	
FineR140	26197.58483469846	33992.93442115987	42792.59234657388	53149.37576902655	66075.30181114546	83799.57615551363	104235.6122617249	134133.92980496137	173214.12966333292	239134.58027379596	358787.34339128766	594391.1108713915	1413550.0552229092	1846372.9309107629	851239.4639582916	527914.6929920809	376027.765580954	304546.0569437733	266237.63903719134	222586.04405610656	205715.0534396519	187521.70684942327	175404.9078492752	165182.39615649122	155288.41652773815	151313.96338474308	
FineR150	26067.314831794047	34107.91449972794	42830.681733252175	53434.627916058475	65346.82143913685	83187.36624130383	105406.09432897634	132759.00276753187	170618.91447571924	228954.14388038492	345599.01978192414	559616.9008131148	1203545.803033686	2407180.612251603	890970.7188891273	547954.9639222613	207736.94143839818	304508.030764379	266193.54550304497	236449.26020582177	209170.61195507456	183908.69741486074	177894.57957185776	161961.0882824855	157269.9739616485	146393.70737867776	
FineR160	26087.760689852643	34016.47401149471	42823.63700286972	53483.43178263269	66131.03082153575	81996.22303910514	103365.01287313286	131169.2229206879	168143.30900538753	228512.27984043214	333752.2457429486	559524.3394942587	1268541.4415338936	1413425.7844951968	825583.7506950855	531609.0118342754	385916.3734551453	319128.01338638976	271686.08946758957	230562.0993384996	212614.37960537054	190308.39445489523	172208.57185716674	164063.81938845318	159261.0314822697	146375.44211872725	
FineR170	26158.713669063927	34044.31676095275	42859.11263490903	53474.6229255495	66187.85077426762	82646.48966041132	103347.94898701544	131191.80163478528	170747.98404495322	223966.55017640526	324710.2898173954	515352.9342004282	1076171.4454490975	1521992.5098370227	845688.5718122406	531520.9882738496	354471.21413253015	288073.0093904235	268925.3454923685	234568.2623578967	207858.6179855015	185430.6560143467	173681.42046482651	163307.06341957275	156624.05978966245	145813.11401991072	
FineR180	26178.473739533278	34162.87012618439	42663.0684931266	53518.26734850552	66176.9381708785	82029.63377307022	104414.63148723225	132784.70129230781	173142.15310359045	232978.69883063989	342627.27310572064	515288.48248673894	951091.231822689	1345041.3562415098	757153.149032023	511854.988655737	378106.6346422579	321016.0276926795	261026.31149774473	228615.18832337006	211075.9578919399	191902.92430953353	181746.76645037	163259.6090708926	155880.24841408737	149819.38887615167	
FineR190	26051.320352074265	34157.25700794915	42738.63572831898	53509.450413948536	66280.09054700563	82057.5532787041	102417.80979628576	131148.45863924717	170526.65884716285	231893.55693337385	318912.65449191426	499436.6006846598	840243.6493326817	1304718.6421961319	688827.0917255519	481192.4396746067	386301.1017808692	309359.12426918186	273873.28534355166	232313.84835590632	206265.76131525688	191878.96329289133	178154.10444754522	165287.75651218148	155854.39987286707	149794.54481629893	
FineR200	26074.477764428197	34094.818866330235	42545.46676800541	53847.1745237224	66269.16113931547	82700.65875690662	105409.79838561318	129558.95374836723	170184.75041527918	221055.5910270634	318872.7509257455	499416.4266835636	391649.8327740436	1344818.6913112118	845302.904289344	490095.0073022299	386237.10734830174	314859.27765595115	261754.05819633158	235961.17876594738	209277.5918217935	194548.66152031577	178124.5693097413	164283.4280577002	153278.60460221855	149084.30159720214	
FineR210	26092.796221744098	34303.49378846109	42915.09480346312	53303.494181903276	65460.353371345955	82690.28665364682	104358.05342725237	132504.04024115944	172645.16527485935	222337.43893491433	326076.6809175954	511630.40340001095	839999.5136467813	1054873.415665085	756997.0440843711	497351.2490758066	359057.80254428217	303361.89672000345	265714.25372784643	229720.4515722448	215220.40795426443	188760.36415763528	174650.8499516402	167277.89787779705	154992.05842324262	149084.30159720214	
FineR220	26140.45128740596	34212.59529464532	42908.0314171281	53587.844984312374	65449.5581249691	83328.20045883463	102355.01113887073	130959.87674668687	169654.47420337165	226310.22900433137	314429.83808303415	480981.23871934967	824939.6412857766	806251.0970291292	631733.930243334	471769.84691853554	381786.2861103902	292589.49978530564	261710.6785936348	243026.9742314248	202384.21239501762	182550.63098430843	176751.5841627664	162297.97217031478	152371.09786340545	144381.46169718227	
FineR230	26137.144541356276	33903.62851065754	42760.081097689785	53581.10970245913	65483.57178084355	82049.58693517926	103345.18098359666	127859.83846327665	169626.4231907864	228453.9862351165	309188.9737484235	522246.89184114436	760495.2070854884	973789.7069915162	688598.9398771973	471769.84691853554	381770.74503322574	312409.05050878035	261677.97636333382	232998.09966291377	207197.73666030072	188705.49296966178	173257.98796647403	163099.6078389089	156718.53764767846	148270.96785564334	
FineR240	26035.60735281862	34113.15360010902	42567.858038151055	53867.31479962035	66285.196273778	82686.4219730073	104327.73786631665	132246.69790740716	166727.10314486042	228453.9862351165	320759.23332793487	275606.22703133797	688547.8720692901	760584.9130767715	631629.2943786263	471750.66752225417	352389.2240634658	292541.005065906	257447.3377793366	226787.01902886768	204929.9076604023	189020.0916879695	176722.27365998697	168030.31375755812	151402.49942350088	147378.09730325584	
FineR250	26032.313622334277	34019.41851744311	42600.00798114602	53363.05709934549	66274.26180484984	81420.15488042863	104236.1515349443	127663.42390283314	168954.96514430578	214129.3271715866	293104.3660384258	489798.80703131016	631556.8939888375	768275.633467307	680257.9510744435	474436.7662146209	368934.3923821049	300681.4863771962	260907.2000900387	229758.42001838164	209923.99886825177	191003.73684968115	178809.13927227774	161819.9211402232	158415.79113031924	152364.84939949596	
MaxZout:	3405394.220938304	FineR:	130	FineC:	130

	FineC120	FineC121	FineC122	FineC123	FineC124	FineC125	FineC126	FineC127	FineC128	FineC129	FineC130	FineC131	FineC132	FineC133	FineC134	FineC135	FineC136	FineC137	FineC138	FineC139	FineC140	
FineR120	1702634.0182200053	2692318.7032741867	2111943.0535737607	2407985.568893634	3405543.7157669836	7615027.248802199	7614384.413726431	7614384.413726431	5384401.03446985	3807192.2068632157	5385073.629951591	2112021.452396877	2112021.452396877	2112285.2553573344	1794873.099816375	1346209.4121086807	1346209.4121086807	1076876.7153207466	1077011.2162832846	1077011.2162832846	975080.1396236744	
FineR121	1305807.8522733825	1794733.839753281	3404980.4111037115	2111857.5855247583	3405405.84952807	5384637.406548373	7614075.978081646	7615027.248802199	3405394.220938304	5384401.03446985	3405394.220938304	2692200.517234925	2111935.8418285344	1794873.099816375	1523062.0867187262	1523000.3282993736	1346209.4121086807	1189359.9221388972	1056139.240892907	1189311.6783638692	897397.2627672888	
FineR122	1305807.8522733825	1702634.0182200053	2692209.710442335	3404980.4111037115	2692209.710442335	3405405.84952807	1.0E9	7614075.978081646	7614384.413726431	5384401.03446985	2692200.517234925	2692200.517234925	2112021.4523968776	3405819.6076715514	1794873.099816375	1523062.0867187262	1346209.4121086807	1076876.7153207466	1346209.4121086807	974958.3681738062	975080.1396236744	
FineR123	1522882.1622174187	1794733.839753281	2691873.3718360523	3404980.4111037115	5383964.756571128	7614075.978081646	7614075.978081646	7614075.978081646	7614384.413726431	3405394.220938304	3405394.220938304	1794648.913359441	2112021.4523968776	1522810.0997826352	1522810.0997826352	1346041.2790847092	1189163.140872503	974958.3681738062	1076876.7153207466	974958.3681738062	897397.2627672888	
FineR124	1522882.1622174187	1794733.839753281	1794733.839753281	2111943.0535737607	3404980.4111037115	7614384.413726431	7614075.978081646	7614384.413726431	3404968.839798685	3405394.220938304	2691864.2239162065	3405394.220938304	2111672.0316447746	2112021.4523968776	1522810.0997826352	1346041.2790847092	1306014.964782293	1306014.964782293	1055964.4971450362	974958.3681738062	974958.3681738062	
FineR125	1794509.604940086	1794733.839753281	1794509.604940086	2691764.407410129	3404980.4111037115	7614075.978081647	7613433.194032766	1.0E9	7614384.413726431	5383510.239611325	2691864.2239162065	2691864.2239162065	2111757.6529079718	1522871.8659164994	1794576.149277471	1522810.0997826355	1055832.6098392678	974836.5983294959	974836.5983294959	974836.5983294959	897285.1801096707	
FineR126	1305591.8761461498	1522630.2768564667	1794509.604940086	2691764.407410129	3807037.9890408237	5383074.075284493	1.0E9	7614075.978081647	5383510.239611325	5383510.239611325	3404968.839798685	2691864.2239162065	2111672.0316447746	1702553.4499686053	1522810.0997826355	1794576.149277471	1522810.0997826355	1076698.5186206955	1076698.5186206955	974836.5983294959	897285.1801096707	
FineR127	1345827.7425064472	1702421.2903978853	1702421.2903978853	2111593.729135195	3404980.4111037115	3404417.130728842	5383074.075284493	1.0E9	7613433.194032766	3806716.597016383	2407676.556350541	2407676.556350541	2111672.0316447746	2111672.0316447746	1702553.4499686053	1189014.6053380999	1189014.6053380999	1522810.0997826355	974836.5983294959	885076.6496048099	885076.6496048099	
FineR128	1345827.7425064472	1522630.276856467	2111329.876204533	2111593.729135195	2691764.407410129	5383074.075284493	7613124.719850582	5383074.075284493	7613124.719850582	3806716.597016383	3404830.8328021225	2691418.817278352	2407676.556350541	2407676.556350541	1522619.873770207	1522619.873770207	1345818.5473903976	1134939.8907235377	1055789.7609044944	944365.3953846466	761307.5331296808	
FineR129	1522440.0021018889	1794212.7490598457	1522630.276856467	2407383.9120505895	3404554.9782607416	5383074.075284493	7613124.719850582	3404830.8328021234	2537913.9290194833	3404405.440014453	2407375.770418902	2111408.224931335	1702340.7708211653	2111408.224931335	1522619.873770207	1305635.7703072792	1305635.7703072792	999730.0497703332	1055789.7609044944	974675.2632812937	897136.6797886608	
FineR130	1522440.0021018889	2111329.876204533	2111329.876204533	2537605.454842112	3404554.9782607416	3806408.1822631685	5382619.483114147	1.0E9	3404830.8328021234	3404405.440014453	3404405.440014453	2111408.224931335	2111408.224931335	2111408.224931335	1413717.0618742928	1305688.7409468207	1305635.7703072792	1134939.8907235377	1188966.3680652382	974675.2632812937	1055789.7609044944	
FineR131	1522440.0021018889	1522630.276856467	2111329.876204533	2407383.9120505895	3404554.9782607416	3805932.540127321	3806408.1822631685	1.0E9	3404830.8328021234	3404405.440014453	3404405.440014453	2407375.770418902	2111408.224931335	1846372.9309107629	1413717.0618742928	1413717.0618742928	1305635.7703072792	1305635.7703072792	1055657.8699851285	825617.2735311084	944365.3953846466	
FineR132	1345436.9294953963	1793988.5110495493	1702139.6681823733	1846304.4169367088	3805932.540127321	7611865.080254642	3404692.8789539887	7612173.474113684	3404267.468927786	3806240.9934211993	3404405.440014453	2407278.172542592	3404405.440014453	2407278.172542592	1493051.6246420129	1305472.654995568	1413717.0618742928	1055657.8699851285	1055657.8699851285	884966.0934106383	1055789.7609044944	
FineR133	1522440.0021018889	1702139.6681823733	2110980.559616057	2407286.4391260133	3403991.6862413166	2537605.454842112	7611865.080254642	3806408.1822631685	3404692.8789539887	2537493.9956141333	3806086.737056842	2407278.172542592	2111058.8119927654	1846372.9309107629	1522367.8924622652	1413717.0618742928	1413717.0618742928	1188817.8284616584	1188817.8284616584	1055657.8699851285	884966.0934106383	
FineR134	1413550.0552229092	1413550.0552229092	2110980.559616057	1846304.4169367088	3403991.6862413166	3805932.540127321	5382619.483114147	3404267.468927786	3404267.468927786	3806086.737056842	3806086.737056842	1903197.654606583	1702059.0471543577	1702059.0471543577	1413540.443781817	1305472.654995568	1305472.654995568	1134752.062983119	944091.1380386308	944209.103307753	944209.103307753	
FineR135	1134713.8650583043	1701926.9373272166	1701926.9373272166	2110980.559616057	2406985.6044438654	3403991.6862413166	5381946.859641035	2406977.378373133	2537176.9307200033	2537176.9307200033	2406977.378373133	2537176.9307200033	1846142.2416679023	2406977.378373133	1413540.443781817	1702059.0471543577	1305472.654995568	1134752.062983119	999564.5948663574	884819.6105666079	999564.5948663574	
FineR136	1522188.1224080026	1701926.9373272166	1701926.9373272166	1701926.9373272166	2690646.413968212	3403991.6862413166	3403704.1293273414	3403842.064491242	3404267.468927786	3805611.1204378204	3805611.1204378204	3806086.737056842	2406977.378373133	2537493.9956141333	1413483.1031033306	1251429.463734454	1203586.318051182	999564.5948663574	1134752.062983119	1134752.062983119	806850.7930511013	
FineR137	1188581.1381438032	1522188.1224080026	1701926.9373272166	1902889.2013199297	2407083.089550504	3403704.1293273414	2407083.089550504	5381728.764997359	3403842.064491242	2537176.9307200033	3805611.1204378204	2406977.378373133	3806086.737056842	1492804.5366408103	1413540.443781817	1413483.1031033306	1203586.318051182	1413483.1031033306	1134752.062983119	851026.806275807	999564.5948663574	
FineR138	1305265.5465685225	1413373.3918634474	1522188.1224080026	2406985.6044438654	2537185.601759906	3805302.747482781	2690973.4298205175	5381728.764997359	3403842.064491242	2406977.378373133	2536859.8699967647	2537176.9307200033	1522367.892462265	1492804.5366408103	1492804.5366408103	1251429.463734454	1134610.2806201295	999439.7137293027	1134610.2806201295	851026.806275807	772862.7330410695	
FineR139	1305265.5465685225	1413373.3918634474	1701926.9373272166	1845998.9484414824	2406888.1569362544	2537185.601759906	3403704.1293273414	3805302.747482781	5381728.764997359	3403842.064491242	3805611.1204378204	2537176.9307200033	1522367.892462265	1846067.378159823	1492804.5366408103	1492804.5366408103	1203586.318051182	1203586.318051182	1203586.318051182	944091.1380386308	999564.5948663574	
FineR140	1413139.5226037758	1413316.1907982284	1492688.6686574873	2406587.3140195846	1902889.2013199297	2536868.4983218536	3403704.1293273414	3403704.1293273414	2690864.3824986797	2406879.805889775	2406879.805889775	1902882.6980400027	1902882.6980400027	2537074.08029188	1413306.4801721356	1413306.4801721356	1134468.5001258422	1045478.3323418169	923030.6938367251	1134610.2806201295	890859.4049860251	
MaxZout:	1.0E9	FineR:	122	FineC:	126

