	CoarseC0	CoarseC10	CoarseC20	CoarseC30	CoarseC40	CoarseC50	CoarseC60	CoarseC70	CoarseC80	CoarseC90	CoarseC100	CoarseC110	CoarseC120	CoarseC130	CoarseC140	CoarseC150	CoarseC160	CoarseC170	CoarseC180	CoarseC190	CoarseC200	CoarseC210	CoarseC220	CoarseC230	CoarseC240	CoarseC250	
CoarseR0	-2.92667e-010	-2.81091e-010	-2.74942e-010	-2.72757e-010	-2.72567e-010	-2.73559e-010	-2.75703e-010	-2.78516e-010	-2.82381e-010	-2.86287e-010	-2.90547e-010	-2.95395e-010	-3.00034e-010	-3.0512e-010	-3.09882e-010	-3.14246e-010	-3.16708e-010	-3.18218e-010	-3.19344e-010	-3.1981e-010	-3.20016e-010	-3.19756e-010	-3.19617e-010	-3.1911e-010	-3.18521e-010	-3.18019e-010	
CoarseR10	-2.50434e-010	-2.41987e-010	-2.38194e-010	-2.36803e-010	-2.37224e-010	-2.38825e-010	-2.41452e-010	-2.44816e-010	-2.49011e-010	-2.53713e-010	-2.58912e-010	-2.64322e-010	-2.6946e-010	-2.74168e-010	-2.78176e-010	-2.81656e-010	-2.84164e-010	-2.85821e-010	-2.86877e-010	-2.87757e-010	-2.88323e-010	-2.88617e-010	-2.88765e-010	-2.88588e-010	-2.88481e-010	-2.88197e-010	
CoarseR20	-2.18104e-010	-2.11639e-010	-2.08559e-010	-2.08081e-010	-2.09031e-010	-2.11055e-010	-2.14354e-010	-2.18318e-010	-2.23286e-010	-2.28803e-010	-2.34418e-010	-2.39632e-010	-2.44598e-010	-2.48883e-010	-2.52651e-010	-2.5598e-010	-2.58511e-010	-2.60216e-010	-2.61552e-010	-2.62832e-010	-2.63736e-010	-2.64093e-010	-2.64602e-010	-2.64667e-010	-2.64758e-010	-2.6454e-010	
CoarseR30	-1.91582e-010	-1.86157e-010	-1.83803e-010	-1.83655e-010	-1.85182e-010	-1.87979e-010	-1.9168e-010	-1.96694e-010	-2.02347e-010	-2.08722e-010	-2.14122e-010	-2.19264e-010	-2.23621e-010	-2.27642e-010	-2.31361e-010	-2.34667e-010	-2.37276e-010	-2.392e-010	-2.40917e-010	-2.42359e-010	-2.43216e-010	-2.44014e-010	-2.44667e-010	-2.45014e-010	-2.45204e-010	-2.45339e-010	
CoarseR40	-1.70462e-010	-1.6578e-010	-1.64166e-010	-1.64343e-010	-1.66174e-010	-1.69631e-010	-1.74278e-010	-1.80347e-010	-1.8647e-010	-1.92225e-010	-1.97422e-010	-2.02311e-010	-2.06662e-010	-2.10499e-010	-2.13988e-010	-2.17041e-010	-2.19691e-010	-2.21738e-010	-2.23602e-010	-2.24964e-010	-2.26233e-010	-2.26968e-010	-2.27859e-010	-2.28321e-010	-2.28691e-010	-2.28929e-010	
CoarseR50	-1.53006e-010	-1.48361e-010	-1.47127e-010	-1.47976e-010	-1.50554e-010	-1.54709e-010	-1.6111e-010	-1.6729e-010	-1.73037e-010	-1.78417e-010	-1.8341e-010	-1.88036e-010	-1.92119e-010	-1.96013e-010	-1.9942e-010	-2.0259e-010	-2.05295e-010	-2.07351e-010	-2.0918e-010	-2.10709e-010	-2.11999e-010	-2.131e-010	-2.13948e-010	-2.14702e-010	-2.15048e-010	-2.15349e-010	
CoarseR60	-1.38624e-010	-1.34527e-010	-1.33539e-010	-1.35229e-010	-1.39144e-010	-1.45447e-010	-1.51641e-010	-1.57162e-010	-1.62391e-010	-1.67491e-010	-1.72157e-010	-1.76453e-010	-1.80534e-010	-1.83987e-010	-1.87196e-010	-1.9019e-010	-1.92842e-010	-1.95078e-010	-1.96909e-010	-1.98675e-010	-2.00057e-010	-2.01346e-010	-2.02251e-010	-2.031e-010	-2.03573e-010	-2.04051e-010	
CoarseR70	-1.26774e-010	-1.23006e-010	-1.22749e-010	-1.25662e-010	-1.30666e-010	-1.36504e-010	-1.42206e-010	-1.4762e-010	-1.5302e-010	-1.58013e-010	-1.6247e-010	-1.66703e-010	-1.70416e-010	-1.73803e-010	-1.76895e-010	-1.79881e-010	-1.82369e-010	-1.84597e-010	-1.86549e-010	-1.88212e-010	-1.897e-010	-1.9101e-010	-1.91987e-010	-1.92689e-010	-1.93257e-010	-1.93855e-010	
CoarseR80	-1.17203e-010	-1.14109e-010	-1.14729e-010	-1.19691e-010	-1.25243e-010	-1.30328e-010	-1.35462e-010	-1.40372e-010	-1.45204e-010	-1.50007e-010	-1.54473e-010	-1.58335e-010	-1.61896e-010	-1.65132e-010	-1.68163e-010	-1.70678e-010	-1.73011e-010	-1.7533e-010	-1.77382e-010	-1.79245e-010	-1.80587e-010	-1.81792e-010	-1.82758e-010	-1.83742e-010	-1.84429e-010	-1.85063e-010	
CoarseR90	-1.08839e-010	-1.06694e-010	-1.09647e-010	-1.14249e-010	-1.18706e-010	-1.23824e-010	-1.28794e-010	-1.3357e-010	-1.38362e-010	-1.42555e-010	-1.4684e-010	-1.50678e-010	-1.54126e-010	-1.57402e-010	-1.60314e-010	-1.62905e-010	-1.65244e-010	-1.67448e-010	-1.69261e-010	-1.70765e-010	-1.72202e-010	-1.73654e-010	-1.7479e-010	-1.75729e-010	-1.76475e-010	-1.7709e-010	
CoarseR100	-1.01489e-010	-1.01492e-010	-1.05884e-010	-1.09699e-010	-1.14476e-010	-1.19671e-010	-1.24543e-010	-1.29476e-010	-1.33831e-010	-1.37679e-010	-1.41263e-010	-1.44714e-010	-1.4791e-010	-1.50725e-010	-1.53495e-010	-1.55962e-010	-1.5846e-010	-1.60669e-010	-1.62438e-010	-1.6402e-010	-1.65432e-010	-1.66666e-010	-1.67825e-010	-1.68782e-010	-1.69717e-010	-1.70389e-010	
CoarseR110	-9.61019e-011	-9.91279e-011	-1.02118e-010	-1.05808e-010	-1.10239e-010	-1.14461e-010	-1.19149e-010	-1.23789e-010	-1.28081e-010	-1.32024e-010	-1.35654e-010	-1.3932e-010	-1.42666e-010	-1.45555e-010	-1.4809e-010	-1.50795e-010	-1.5294e-010	-1.54897e-010	-1.56897e-010	-1.58402e-010	-1.59677e-010	-1.60922e-010	-1.61999e-010	-1.63024e-010	-1.63809e-010	-1.64545e-010	
CoarseR120	-9.31695e-011	-9.70115e-011	-1.0041e-010	-1.037e-010	-1.07353e-010	-1.11793e-010	-1.158e-010	-1.20018e-010	-1.24234e-010	-1.27927e-010	-1.31533e-010	-1.35694e-010	-1.38851e-010	-1.41512e-010	-1.44024e-010	-1.46451e-010	-1.48493e-010	-1.50369e-010	-1.52317e-010	-1.53604e-010	-1.54851e-010	-1.56257e-010	-1.57101e-010	-1.57886e-010	-1.58628e-010	-1.59345e-010	
CoarseR130	-9.14903e-011	-9.52264e-011	-9.91358e-011	-1.03081e-010	-1.06614e-010	-1.10301e-010	-1.13971e-010	-1.17741e-010	-1.21311e-010	-1.25149e-010	-1.28557e-010	-1.3184e-010	-1.34661e-010	-1.37393e-010	-1.398e-010	-1.42217e-010	-1.44485e-010	-1.46487e-010	-1.48007e-010	-1.49267e-010	-1.50439e-010	-1.51317e-010	-1.52329e-010	-1.53316e-010	-1.53944e-010	-1.54583e-010	
CoarseR140	-8.83954e-011	-9.18263e-011	-9.60089e-011	-1.0011e-010	-1.03639e-010	-1.07103e-010	-1.10612e-010	-1.15021e-010	-1.17983e-010	-1.22e-010	-1.25059e-010	-1.28139e-010	-1.30837e-010	-1.33607e-010	-1.35947e-010	-1.38244e-010	-1.40308e-010	-1.42192e-010	-1.43775e-010	-1.45514e-010	-1.46685e-010	-1.47949e-010	-1.49133e-010	-1.49863e-010	-1.5057e-010	-1.51317e-010	
CoarseR150	-8.67302e-011	-9.0584e-011	-9.44175e-011	-9.85354e-011	-1.02538e-010	-1.05888e-010	-1.09598e-010	-1.12968e-010	-1.16e-010	-1.19071e-010	-1.22492e-010	-1.2561e-010	-1.28264e-010	-1.31029e-010	-1.33948e-010	-1.3538e-010	-1.37106e-010	-1.39133e-010	-1.41229e-010	-1.42234e-010	-1.4352e-010	-1.4453e-010	-1.45714e-010	-1.46676e-010	-1.47399e-010	-1.47512e-010	
CoarseR160	-8.53688e-011	-8.84385e-011	-9.2524e-011	-9.67513e-011	-1.00658e-010	-1.04433e-010	-1.07223e-010	-1.10774e-010	-1.14178e-010	-1.17345e-010	-1.20445e-010	-1.23418e-010	-1.25957e-010	-1.28874e-010	-1.30837e-010	-1.33265e-010	-1.35369e-010	-1.36897e-010	-1.38565e-010	-1.39934e-010	-1.41056e-010	-1.424e-010	-1.43315e-010	-1.44364e-010	-1.44929e-010	-1.45741e-010	
CoarseR170	-8.44236e-011	-8.75591e-011	-9.13839e-011	-9.53574e-011	-9.92193e-011	-1.2678e-010	-1.21604e-010	-1.25122e-010	-1.28033e-010	-1.30892e-010	-1.33311e-010	-1.35825e-010	-1.38088e-010	-1.39976e-010	-1.41654e-010	-1.43511e-010	-1.45016e-010	-1.4666e-010	-1.47775e-010	-1.49061e-010	-1.497e-010	-1.50604e-010	-1.51363e-010	-1.52302e-010	-1.52911e-010	-1.5348e-010	
CoarseR180	-1.0136e-010	-1.0379e-010	-1.07103e-010	-1.10614e-010	-1.13786e-010	-1.16673e-010	-1.20103e-010	-1.2285e-010	-1.25856e-010	-1.29151e-010	-1.31012e-010	-1.33479e-010	-1.35549e-010	-1.37726e-010	-1.39483e-010	-1.40731e-010	-1.42446e-010	-1.43931e-010	-1.45134e-010	-1.46455e-010	-1.47734e-010	-1.4866e-010	-1.49384e-010	-1.50096e-010	-1.50689e-010	-1.51376e-010	
CoarseR190	-9.98647e-011	-1.02492e-010	-1.04878e-010	-1.08446e-010	-1.11481e-010	-1.15192e-010	-1.18452e-010	-1.21256e-010	-1.24118e-010	-1.27388e-010	-1.29505e-010	-1.3185e-010	-1.33936e-010	-1.36157e-010	-1.37956e-010	-1.39594e-010	-1.40996e-010	-1.42431e-010	-1.43781e-010	-1.44738e-010	-1.45875e-010	-1.4724e-010	-1.48154e-010	-1.48715e-010	-1.49309e-010	-1.49571e-010	
CoarseR200	-9.73886e-011	-1.00104e-010	-1.03259e-010	-1.06202e-010	-1.09885e-010	-1.13261e-010	-1.15957e-010	-1.19464e-010	-1.2236e-010	-1.25478e-010	-1.27631e-010	-1.30362e-010	-1.32399e-010	-1.34256e-010	-1.3617e-010	-1.38295e-010	-1.3992e-010	-1.41208e-010	-1.42938e-010	-1.44263e-010	-1.44704e-010	-1.45702e-010	-1.46899e-010	-1.47699e-010	-1.48521e-010	-1.48942e-010	
CoarseR210	-9.7163e-011	-9.93083e-011	-1.02369e-010	-1.06008e-010	-1.09278e-010	-1.12371e-010	-1.15782e-010	-1.18832e-010	-1.21648e-010	-1.24478e-010	-1.27145e-010	-1.29611e-010	-1.31554e-010	-1.33568e-010	-1.35332e-010	-1.37281e-010	-1.38408e-010	-1.40232e-010	-1.41306e-010	-1.42614e-010	-1.43658e-010	-1.445e-010	-1.45647e-010	-1.46485e-010	-1.46371e-010	-1.47771e-010	
CoarseR220	-9.63609e-011	-9.89114e-011	-1.01559e-010	-1.05304e-010	-1.08164e-010	-1.11295e-010	-1.14494e-010	-1.17456e-010	-1.20201e-010	-1.23018e-010	-1.25085e-010	-1.27855e-010	-1.30328e-010	-1.32233e-010	-1.33911e-010	-1.35771e-010	-1.37475e-010	-1.39335e-010	-1.40819e-010	-1.41904e-010	-1.43078e-010	-1.43986e-010	-1.44945e-010	-1.45719e-010	-1.46582e-010	-1.47257e-010	
CoarseR230	-9.5654e-011	-9.77919e-011	-1.00735e-010	-1.04117e-010	-1.0691e-010	-1.10248e-010	-1.13547e-010	-1.16644e-010	-1.18903e-010	-1.21666e-010	-1.24177e-010	-1.26592e-010	-1.28941e-010	-1.30812e-010	-1.32529e-010	-1.34363e-010	-1.35991e-010	-1.37656e-010	-1.39215e-010	-1.40283e-010	-1.41402e-010	-1.42751e-010	-1.43393e-010	-1.44417e-010	-1.45327e-010	-1.46121e-010	
CoarseR240	-9.36226e-011	-9.60592e-011	-9.89627e-011	-1.02184e-010	-1.05413e-010	-1.09046e-010	-1.1221e-010	-1.15396e-010	-1.18316e-010	-1.20842e-010	-1.24077e-010	-1.26254e-010	-1.2808e-010	-1.30441e-010	-1.32253e-010	-1.34002e-010	-1.35638e-010	-1.37184e-010	-1.38569e-010	-1.39783e-010	-1.41085e-010	-1.42171e-010	-1.43185e-010	-1.43995e-010	-1.44628e-010	-1.45416e-010	
CoarseR250	-9.27739e-011	-9.51565e-011	-9.77791e-011	-1.00963e-010	-1.04352e-010	-1.07855e-010	-1.1133e-010	-1.14355e-010	-1.17563e-010	-1.20117e-010	-1.23151e-010	-1.25379e-010	-1.27595e-010	-1.29959e-010	-1.31991e-010	-1.34041e-010	-1.35285e-010	-1.37181e-010	-1.38097e-010	-1.39459e-010	-1.40614e-010	-1.41915e-010	-1.42942e-010	-1.43693e-010	-1.44263e-010	-1.45151e-010	
MinCout:	-8.44236e-011	CoarseR:	170	CoarseC:	0

	CoarseC60	CoarseC61	CoarseC62	CoarseC63	CoarseC64	CoarseC65	CoarseC66	CoarseC67	CoarseC68	CoarseC69	CoarseC70	CoarseC71	CoarseC72	CoarseC73	CoarseC74	CoarseC75	CoarseC76	CoarseC77	CoarseC78	CoarseC79	CoarseC80	
CoarseR150	-1.21743e-010	-1.21965e-010	-1.22559e-010	-1.23097e-010	-1.232e-010	-1.23421e-010	-1.23924e-010	-1.24004e-010	-1.2413e-010	-1.24487e-010	-1.24849e-010	-1.25221e-010	-1.25682e-010	-1.25696e-010	-1.25973e-010	-1.26368e-010	-1.26941e-010	-1.26685e-010	-1.26762e-010	-1.27044e-010	-1.27194e-010	
CoarseR151	-1.20932e-010	-1.21139e-010	-1.21123e-010	-1.21653e-010	-1.22089e-010	-1.22256e-010	-1.22652e-010	-1.23119e-010	-1.23098e-010	-1.23604e-010	-1.23605e-010	-1.24393e-010	-1.24962e-010	-1.24916e-010	-1.25015e-010	-1.25862e-010	-1.25713e-010	-1.25732e-010	-1.26466e-010	-1.26517e-010	-1.26986e-010	
CoarseR152	-1.20338e-010	-1.20266e-010	-1.20847e-010	-1.2098e-010	-1.2157e-010	-1.21687e-010	-1.22218e-010	-1.22255e-010	-1.22519e-010	-1.22857e-010	-1.23304e-010	-1.23585e-010	-1.23401e-010	-1.23409e-010	-1.23822e-010	-1.24287e-010	-1.2444e-010	-1.24802e-010	-1.25195e-010	-1.25927e-010	-1.25703e-010	
CoarseR153	-1.19671e-010	-1.19468e-010	-1.19853e-010	-1.20069e-010	-1.20343e-010	-1.20616e-010	-1.20747e-010	-1.20839e-010	-1.20832e-010	-1.21375e-010	-1.22159e-010	-1.21956e-010	-1.22302e-010	-1.22643e-010	-1.22955e-010	-1.23409e-010	-1.23429e-010	-1.24144e-010	-1.2437e-010	-1.24912e-010	-1.24733e-010	
CoarseR154	-1.1851e-010	-1.18692e-010	-1.18908e-010	-1.19034e-010	-1.19521e-010	-1.19869e-010	-1.20519e-010	-1.20753e-010	-1.2128e-010	-1.21454e-010	-1.2153e-010	-1.21995e-010	-1.22623e-010	-1.22809e-010	-1.2296e-010	-1.23136e-010	-1.23689e-010	-1.24078e-010	-1.24423e-010	-1.24543e-010	-1.2469e-010	
CoarseR155	-1.18382e-010	-1.185e-010	-1.18868e-010	-1.18875e-010	-1.1938e-010	-1.19522e-010	-1.19968e-010	-1.20517e-010	-1.20941e-010	-1.20888e-010	-1.21283e-010	-1.21896e-010	-1.2192e-010	-1.21892e-010	-1.22529e-010	-1.22716e-010	-1.23112e-010	-1.23243e-010	-1.23827e-010	-1.24076e-010	-1.24489e-010	
CoarseR156	-1.17683e-010	-1.17842e-010	-1.17921e-010	-1.18462e-010	-1.18833e-010	-1.18964e-010	-1.19799e-010	-1.20077e-010	-1.19932e-010	-1.20717e-010	-1.21057e-010	-1.20943e-010	-1.21282e-010	-1.21629e-010	-1.22183e-010	-1.2222e-010	-1.22602e-010	-1.22958e-010	-1.22922e-010	-1.23789e-010	-1.23702e-010	
CoarseR157	-1.16756e-010	-1.17121e-010	-1.17774e-010	-1.18067e-010	-1.18381e-010	-1.18477e-010	-1.18879e-010	-1.18983e-010	-1.1951e-010	-1.19929e-010	-1.20226e-010	-1.20602e-010	-1.20941e-010	-1.21408e-010	-1.21403e-010	-1.21817e-010	-1.22124e-010	-1.22602e-010	-1.22663e-010	-1.2296e-010	-1.23504e-010	
CoarseR158	-1.16372e-010	-1.16433e-010	-1.16873e-010	-1.17439e-010	-1.17628e-010	-1.1794e-010	-1.18058e-010	-1.18944e-010	-1.19192e-010	-1.1895e-010	-1.19364e-010	-1.19569e-010	-1.19756e-010	-1.2026e-010	-1.20457e-010	-1.21181e-010	-1.21242e-010	-1.21562e-010	-1.21984e-010	-1.22454e-010	-1.22554e-010	
CoarseR159	-1.15454e-010	-1.15745e-010	-1.16114e-010	-1.16515e-010	-1.16981e-010	-1.17403e-010	-1.17808e-010	-1.18012e-010	-1.18498e-010	-1.18759e-010	-1.19654e-010	-1.19557e-010	-1.19491e-010	-1.2004e-010	-1.20199e-010	-1.20551e-010	-1.20831e-010	-1.21374e-010	-1.218e-010	-1.22156e-010	-1.22225e-010	
CoarseR160	-1.15351e-010	-1.15749e-010	-1.15967e-010	-1.16569e-010	-1.16726e-010	-1.16803e-010	-1.17546e-010	-1.176e-010	-1.17791e-010	-1.18419e-010	-1.18721e-010	-1.18963e-010	-1.19245e-010	-1.1964e-010	-1.20285e-010	-1.20391e-010	-1.20913e-010	-1.21253e-010	-1.21442e-010	-1.21867e-010	-1.21776e-010	
CoarseR161	-1.15288e-010	-1.1559e-010	-1.15945e-010	-1.16251e-010	-1.16602e-010	-1.17107e-010	-1.17551e-010	-1.17636e-010	-1.17953e-010	-1.18154e-010	-1.18441e-010	-1.19121e-010	-1.19068e-010	-1.19663e-010	-1.19988e-010	-1.20096e-010	-1.20399e-010	-1.20943e-010	-1.21172e-010	-1.2144e-010	-1.22149e-010	
CoarseR162	-1.15389e-010	-1.15569e-010	-1.15938e-010	-1.16275e-010	-1.16625e-010	-1.16852e-010	-1.17463e-010	-1.17777e-010	-1.18098e-010	-1.18662e-010	-1.19e-010	-1.1953e-010	-1.19038e-010	-1.19599e-010	-1.20138e-010	-1.20462e-010	-1.20732e-010	-1.20991e-010	-1.21396e-010	-1.21847e-010	-1.22057e-010	
CoarseR163	-1.15316e-010	-1.15493e-010	-1.16163e-010	-1.16457e-010	-1.16424e-010	-1.16765e-010	-1.17185e-010	-1.17321e-010	-1.17833e-010	-1.18164e-010	-1.18435e-010	-1.18964e-010	-1.1939e-010	-1.19223e-010	-1.19962e-010	-1.2031e-010	-1.20356e-010	-1.20766e-010	-1.21038e-010	-1.20958e-010	-1.21224e-010	
CoarseR164	-1.14707e-010	-1.14835e-010	-1.15081e-010	-1.15479e-010	-1.161e-010	-1.1608e-010	-1.16719e-010	-1.16981e-010	-1.17612e-010	-1.179e-010	-1.1806e-010	-1.18334e-010	-1.18621e-010	-1.18536e-010	-1.1909e-010	-1.19224e-010	-1.19419e-010	-1.19478e-010	-1.19575e-010	-1.19776e-010	-1.20142e-010	
CoarseR165	-1.13759e-010	-1.13743e-010	-1.14331e-010	-1.14632e-010	-1.1522e-010	-1.1545e-010	-1.15615e-010	-1.16201e-010	-1.16434e-010	-1.16736e-010	-1.17106e-010	-1.17551e-010	-1.17918e-010	-1.18222e-010	-1.18662e-010	-1.18783e-010	-1.18969e-010	-1.19141e-010	-1.19714e-010	-1.19947e-010	-1.19924e-010	
CoarseR166	-1.13151e-010	-1.13866e-010	-1.14324e-010	-1.14861e-010	-1.1516e-010	-1.15392e-010	-1.15589e-010	-1.16098e-010	-1.16158e-010	-1.16804e-010	-1.16835e-010	-1.17514e-010	-1.17719e-010	-1.17658e-010	-1.18202e-010	-1.18526e-010	-1.18982e-010	-1.19346e-010	-1.19366e-010	-1.19977e-010	-1.20243e-010	
CoarseR167	-1.13424e-010	-1.14198e-010	-1.14293e-010	-1.14765e-010	-1.15639e-010	-1.15589e-010	-1.16091e-010	-1.16059e-010	-1.16314e-010	-1.16623e-010	-1.17318e-010	-1.17128e-010	-1.17695e-010	-1.17997e-010	-1.18383e-010	-1.18513e-010	-1.18691e-010	-1.1881e-010	-1.19358e-010	-1.19639e-010	-1.19585e-010	
CoarseR168	-1.13097e-010	-1.13677e-010	-1.13648e-010	-1.13933e-010	-1.14134e-010	-1.14523e-010	-1.15067e-010	-1.15431e-010	-1.1582e-010	-1.16012e-010	-1.16158e-010	-1.16221e-010	-1.16531e-010	-1.16738e-010	-1.17205e-010	-1.17627e-010	-1.1807e-010	-1.18782e-010	-1.18881e-010	-1.192e-010	-1.19314e-010	
CoarseR169	-1.12787e-010	-1.13031e-010	-1.13378e-010	-1.13801e-010	-1.14532e-010	-1.15484e-010	-1.15221e-010	-1.1538e-010	-1.1548e-010	-1.15726e-010	-1.16129e-010	-1.17165e-010	-1.17157e-010	-1.17285e-010	-1.17487e-010	-1.17915e-010	-1.18285e-010	-1.18952e-010	-1.18829e-010	-1.19161e-010	-1.1913e-010	
CoarseR170	-1.12462e-010	-1.13444e-010	-1.13428e-010	-1.14148e-010	-1.14249e-010	-1.14257e-010	-1.14582e-010	-1.14737e-010	-1.15234e-010	-1.15585e-010	-1.15806e-010	-1.15977e-010	-1.16467e-010	-1.16495e-010	-1.17085e-010	-1.17745e-010	-1.17546e-010	-1.17939e-010	-1.18665e-010	-1.18767e-010	-1.18755e-010	
MinCout:	-1.12462e-010	CoarseR:	170	CoarseC:	60

	FineC0	FineC10	FineC20	FineC30	FineC40	FineC50	FineC60	FineC70	FineC80	FineC90	FineC100	FineC110	FineC120	FineC130	FineC140	FineC150	FineC160	FineC170	FineC180	FineC190	FineC200	FineC210	FineC220	FineC230	FineC240	FineC250	
FineR0	-9.8826e-011	-1.02823e-010	-1.04973e-010	-1.06782e-010	-1.0832e-010	-1.09512e-010	-1.10381e-010	-1.11106e-010	-1.12125e-010	-1.12927e-010	-1.1291e-010	-1.1357e-010	-1.13548e-010	-1.14168e-010	-1.14276e-010	-1.14474e-010	-1.14404e-010	-1.14425e-010	-1.1457e-010	-1.14883e-010	-1.14909e-010	-1.15053e-010	-1.1529e-010	-1.15536e-010	-1.1574e-010	-1.15877e-010	
FineR10	-9.79617e-011	-1.01322e-010	-1.03794e-010	-1.05595e-010	-1.0677e-010	-1.0811e-010	-1.08804e-010	-1.09341e-010	-1.09962e-010	-1.10522e-010	-1.10977e-010	-1.1158e-010	-1.11968e-010	-1.12314e-010	-1.12395e-010	-1.12669e-010	-1.12768e-010	-1.13055e-010	-1.1322e-010	-1.13139e-010	-1.13121e-010	-1.12977e-010	-1.13375e-010	-1.13643e-010	-1.13578e-010	-1.14133e-010	
FineR20	-9.6323e-011	-1.00015e-010	-1.02612e-010	-1.04496e-010	-1.05908e-010	-1.07122e-010	-1.0787e-010	-1.08677e-010	-1.09298e-010	-1.10052e-010	-1.10616e-010	-1.10899e-010	-1.11221e-010	-1.10959e-010	-1.11229e-010	-1.11935e-010	-1.11686e-010	-1.12055e-010	-1.11941e-010	-1.12229e-010	-1.12269e-010	-1.12158e-010	-1.12437e-010	-1.12627e-010	-1.12262e-010	-1.12269e-010	
FineR30	-9.48159e-011	-9.86983e-011	-1.01559e-010	-1.03458e-010	-1.04652e-010	-1.05938e-010	-1.07009e-010	-1.08041e-010	-1.08362e-010	-1.08972e-010	-1.09566e-010	-1.09405e-010	-1.0949e-010	-1.09976e-010	-1.1041e-010	-1.10516e-010	-1.10613e-010	-1.10822e-010	-1.10931e-010	-1.11019e-010	-1.11838e-010	-1.11432e-010	-1.11259e-010	-1.1181e-010	-1.11631e-010	-1.1153e-010	
FineR40	-9.41725e-011	-9.78395e-011	-1.00236e-010	-1.02267e-010	-1.03788e-010	-1.04644e-010	-1.05982e-010	-1.07014e-010	-1.07412e-010	-1.07582e-010	-1.08226e-010	-1.08728e-010	-1.0883e-010	-1.09218e-010	-1.09219e-010	-1.09639e-010	-1.09898e-010	-1.0978e-010	-1.09912e-010	-1.09695e-010	-1.09678e-010	-1.09772e-010	-1.09636e-010	-1.09831e-010	-1.09676e-010	-1.09552e-010	
FineR50	-9.22816e-011	-9.61679e-011	-9.87465e-011	-1.0079e-010	-1.02229e-010	-1.0348e-010	-1.04355e-010	-1.05017e-010	-1.05365e-010	-1.05879e-010	-1.06286e-010	-1.06286e-010	-1.06309e-010	-1.06835e-010	-1.07124e-010	-1.07372e-010	-1.07432e-010	-1.07817e-010	-1.075e-010	-1.0715e-010	-1.07298e-010	-1.07174e-010	-1.07004e-010	-1.07466e-010	-1.07408e-010	-1.07594e-010	
FineR60	-9.02754e-011	-9.45164e-011	-9.70901e-011	-9.95861e-011	-1.01279e-010	-1.02777e-010	-1.03873e-010	-1.04526e-010	-1.05026e-010	-1.05316e-010	-1.05136e-010	-1.05573e-010	-1.05783e-010	-1.05962e-010	-1.06022e-010	-1.06435e-010	-1.06534e-010	-1.06578e-010	-1.066e-010	-1.06715e-010	-1.06595e-010	-1.06686e-010	-1.06666e-010	-1.06914e-010	-1.06989e-010	-1.07363e-010	
FineR70	-9.01125e-011	-9.43256e-011	-9.69963e-011	-9.90918e-011	-1.00367e-010	-1.01777e-010	-1.02571e-010	-1.03177e-010	-1.03706e-010	-1.04327e-010	-1.04941e-010	-1.05306e-010	-1.05491e-010	-1.05834e-010	-1.05981e-010	-1.06158e-010	-1.06525e-010	-1.0672e-010	-1.06623e-010	-1.06739e-010	-1.07011e-010	-1.07166e-010	-1.07376e-010	-1.07231e-010	-1.0719e-010	-1.07013e-010	
FineR80	-9.03731e-011	-9.40916e-011	-9.6897e-011	-9.90701e-011	-1.00433e-010	-1.01782e-010	-1.02678e-010	-1.03502e-010	-1.03791e-010	-1.04179e-010	-1.04731e-010	-1.04869e-010	-1.05281e-010	-1.05686e-010	-1.05723e-010	-1.06011e-010	-1.06127e-010	-1.0643e-010	-1.06647e-010	-1.06707e-010	-1.06854e-010	-1.06915e-010	-1.07044e-010	-1.06892e-010	-1.06841e-010	-1.07033e-010	
FineR90	-9.01612e-011	-9.45399e-011	-9.67313e-011	-9.87858e-011	-1.00221e-010	-1.01402e-010	-1.02237e-010	-1.03067e-010	-1.03938e-010	-1.04505e-010	-1.04722e-010	-1.05376e-010	-1.05616e-010	-1.05795e-010	-1.06035e-010	-1.06268e-010	-1.06501e-010	-1.06884e-010	-1.06914e-010	-1.06989e-010	-1.06955e-010	-1.07071e-010	-1.07264e-010	-1.076e-010	-1.07311e-010	-1.07372e-010	
FineR100	-9.04069e-011	-9.42262e-011	-9.69645e-011	-9.88308e-011	-1.00527e-010	-1.01892e-010	-1.0304e-010	-1.0367e-010	-1.04255e-010	-1.04869e-010	-1.049e-010	-1.0532e-010	-1.0585e-010	-1.06153e-010	-1.06778e-010	-1.07137e-010	-1.07292e-010	-1.07415e-010	-1.07508e-010	-1.07458e-010	-1.07518e-010	-1.0761e-010	-1.07424e-010	-1.07602e-010	-1.07788e-010	-1.07563e-010	
FineR110	-9.05812e-011	-9.45415e-011	-9.7231e-011	-9.91311e-011	-1.00793e-010	-1.01832e-010	-1.03204e-010	-1.03903e-010	-1.04472e-010	-1.0511e-010	-1.05234e-010	-1.05646e-010	-1.05966e-010	-1.06292e-010	-1.06517e-010	-1.07165e-010	-1.06967e-010	-1.06903e-010	-1.07192e-010	-1.07322e-010	-1.07508e-010	-1.076e-010	-1.07636e-010	-1.07721e-010	-1.07733e-010	-1.07873e-010	
FineR120	-9.05977e-011	-9.46257e-011	-9.72033e-011	-9.92157e-011	-1.00745e-010	-1.0227e-010	-1.03559e-010	-1.03833e-010	-1.04348e-010	-1.04621e-010	-1.04923e-010	-1.05219e-010	-1.05483e-010	-1.06059e-010	-1.06629e-010	-1.07528e-010	-1.07849e-010	-1.0729e-010	-1.07413e-010	-1.07617e-010	-1.07678e-010	-1.0777e-010	-1.07862e-010	-1.07629e-010	-1.07697e-010	-1.07489e-010	
FineR130	-9.04639e-011	-9.42968e-011	-9.71985e-011	-9.89202e-011	-1.00566e-010	-1.01945e-010	-1.03264e-010	-1.0377e-010	-1.04207e-010	-1.04551e-010	-1.04877e-010	-1.05273e-010	-1.05827e-010	-1.06349e-010	-1.06739e-010	-1.06682e-010	-1.06594e-010	-1.06756e-010	-1.06768e-010	-1.06946e-010	-1.06951e-010	-1.0691e-010	-1.06709e-010	-1.06745e-010	-1.06986e-010	-1.06872e-010	
FineR140	-8.96389e-011	-9.37522e-011	-9.6299e-011	-9.85642e-011	-1.00069e-010	-1.01356e-010	-1.02475e-010	-1.02802e-010	-1.03168e-010	-1.03897e-010	-1.04176e-010	-1.0486e-010	-1.05303e-010	-1.05339e-010	-1.05846e-010	-1.05428e-010	-1.05957e-010	-1.06159e-010	-1.06125e-010	-1.06074e-010	-1.06189e-010	-1.06572e-010	-1.06183e-010	-1.0633e-010	-1.06522e-010	-1.06408e-010	
FineR150	-8.95231e-011	-9.37255e-011	-9.62737e-011	-9.84469e-011	-1.00046e-010	-1.01279e-010	-1.0215e-010	-1.02778e-010	-1.03066e-010	-1.03702e-010	-1.04136e-010	-1.04626e-010	-1.05007e-010	-1.05137e-010	-1.05659e-010	-1.06009e-010	-1.06541e-010	-1.06711e-010	-1.07047e-010	-1.07452e-010	-1.06929e-010	-1.06847e-010	-1.06646e-010	-1.06713e-010	-1.0663e-010	-1.06934e-010	
FineR160	-8.97278e-011	-9.39532e-011	-9.64904e-011	-9.90567e-011	-1.0034e-010	-1.01511e-010	-1.02188e-010	-1.02903e-010	-1.03531e-010	-1.04036e-010	-1.04486e-010	-1.05249e-010	-1.05005e-010	-1.0515e-010	-1.05297e-010	-1.05584e-010	-1.0573e-010	-1.05641e-010	-1.05958e-010	-1.0601e-010	-1.06446e-010	-1.06467e-010	-1.06677e-010	-1.06587e-010	-1.06369e-010	-1.07202e-010	
FineR170	-8.97303e-011	-9.36257e-011	-9.63222e-011	-9.83e-011	-9.99842e-011	-1.01185e-010	-1.02126e-010	-1.02825e-010	-1.03291e-010	-1.03927e-010	-1.04307e-010	-1.04734e-010	-1.04849e-010	-1.05151e-010	-1.05304e-010	-1.05051e-010	-1.0543e-010	-1.0552e-010	-1.05722e-010	-1.05656e-010	-1.05896e-010	-1.06043e-010	-1.06023e-010	-1.06413e-010	-1.06299e-010	-1.06428e-010	
FineR180	-8.93039e-011	-9.35407e-011	-9.63821e-011	-9.82915e-011	-9.96424e-011	-1.00968e-010	-1.02251e-010	-1.02879e-010	-1.03237e-010	-1.03748e-010	-1.04362e-010	-1.04655e-010	-1.0527e-010	-1.05533e-010	-1.0539e-010	-1.05702e-010	-1.0591e-010	-1.06252e-010	-1.06353e-010	-1.06128e-010	-1.06314e-010	-1.06279e-010	-1.06322e-010	-1.06706e-010	-1.06843e-010	-1.06902e-010	
FineR190	-8.94983e-011	-9.36738e-011	-9.60772e-011	-9.81004e-011	-9.99514e-011	-1.01232e-010	-1.02002e-010	-1.02832e-010	-1.03361e-010	-1.03874e-010	-1.04433e-010	-1.04758e-010	-1.05733e-010	-1.05527e-010	-1.05869e-010	-1.05992e-010	-1.06336e-010	-1.06358e-010	-1.07193e-010	-1.06844e-010	-1.07068e-010	-1.07295e-010	-1.07401e-010	-1.07162e-010	-1.07261e-010	-1.07439e-010	
FineR200	-9.0193e-011	-9.4275e-011	-9.67313e-011	-9.88252e-011	-9.98516e-011	-1.00907e-010	-1.01942e-010	-1.02398e-010	-1.03275e-010	-1.03873e-010	-1.04111e-010	-1.04593e-010	-1.04731e-010	-1.05471e-010	-1.05562e-010	-1.0592e-010	-1.05973e-010	-1.06245e-010	-1.06478e-010	-1.06711e-010	-1.06716e-010	-1.06571e-010	-1.06889e-010	-1.06862e-010	-1.06954e-010	-1.06784e-010	
FineR210	-8.9651e-011	-9.37255e-011	-9.62238e-011	-9.85523e-011	-9.99962e-011	-1.01131e-010	-1.02225e-010	-1.02646e-010	-1.03128e-010	-1.04262e-010	-1.04759e-010	-1.05179e-010	-1.05833e-010	-1.06412e-010	-1.0652e-010	-1.06996e-010	-1.06908e-010	-1.07111e-010	-1.07078e-010	-1.07382e-010	-1.07725e-010	-1.07831e-010	-1.08097e-010	-1.07897e-010	-1.0769e-010	-1.07576e-010	
FineR220	-9.03724e-011	-9.47719e-011	-9.67709e-011	-9.86359e-011	-1.00299e-010	-1.01725e-010	-1.02445e-010	-1.0284e-010	-1.03578e-010	-1.04114e-010	-1.04883e-010	-1.04765e-010	-1.06037e-010	-1.05957e-010	-1.06277e-010	-1.06455e-010	-1.06805e-010	-1.06716e-010	-1.07145e-010	-1.06899e-010	-1.07116e-010	-1.07152e-010	-1.07276e-010	-1.07092e-010	-1.07072e-010	-1.07258e-010	
FineR230	-9.00427e-011	-9.40305e-011	-9.66408e-011	-9.86142e-011	-1.00145e-010	-1.01533e-010	-1.02242e-010	-1.03033e-010	-1.03578e-010	-1.04191e-010	-1.04587e-010	-1.05302e-010	-1.05371e-010	-1.05705e-010	-1.05922e-010	-1.06093e-010	-1.06131e-010	-1.06403e-010	-1.06124e-010	-1.06364e-010	-1.0641e-010	-1.06759e-010	-1.06969e-010	-1.07117e-010	-1.07358e-010	-1.07236e-010	
FineR240	-8.9919e-011	-9.38772e-011	-9.70136e-011	-9.84157e-011	-1.0009e-010	-1.01354e-010	-1.02271e-010	-1.02986e-010	-1.03562e-010	-1.04378e-010	-1.04759e-010	-1.05e-010	-1.05381e-010	-1.05527e-010	-1.05869e-010	-1.05867e-010	-1.06367e-010	-1.06528e-010	-1.06817e-010	-1.06475e-010	-1.06716e-010	-1.06752e-010	-1.06844e-010	-1.07646e-010	-1.06939e-010	-1.06888e-010	
FineR250	-8.96511e-011	-9.36244e-011	-9.62737e-011	-9.84517e-011	-1.00375e-010	-1.01527e-010	-1.02419e-010	-1.03288e-010	-1.03989e-010	-1.04557e-010	-1.0465e-010	-1.051e-010	-1.05489e-010	-1.05722e-010	-1.05915e-010	-1.0596e-010	-1.06239e-010	-1.0615e-010	-1.06335e-010	-1.06583e-010	-1.06393e-010	-1.06798e-010	-1.06844e-010	-1.06778e-010	-1.06821e-010	-1.06707e-010	
MinCout:	-8.93039e-011	FineR:	180	FineC:	0

	FineC0	FineC1	FineC2	FineC3	FineC4	FineC5	FineC6	FineC7	FineC8	FineC9	FineC10	FineC11	FineC12	FineC13	FineC14	FineC15	FineC16	FineC17	FineC18	FineC19	FineC20	
FineR180	-8.97783e-011	-9.06985e-011	-9.08325e-011	-9.13739e-011	-9.13063e-011	-9.16287e-011	-9.21369e-011	-9.26495e-011	-9.3041e-011	-9.32078e-011	-9.35661e-011	-9.39694e-011	-9.42232e-011	-9.48725e-011	-9.5103e-011	-9.52168e-011	-9.56684e-011	-9.60126e-011	-9.63596e-011	-9.64832e-011	-9.66906e-011	
FineR181	-8.99063e-011	-9.10535e-011	-9.14459e-011	-9.20614e-011	-9.23522e-011	-9.28066e-011	-9.303e-011	-9.32465e-011	-9.35974e-011	-9.39256e-011	-9.42546e-011	-9.43531e-011	-9.46881e-011	-9.54258e-011	-9.54222e-011	-9.57545e-011	-9.58705e-011	-9.63624e-011	-9.64908e-011	-9.6755e-011	-9.6812e-011	
FineR182	-9.05658e-011	-9.1325e-011	-9.16338e-011	-9.19084e-011	-9.21989e-011	-9.24779e-011	-9.27835e-011	-9.32434e-011	-9.32808e-011	-9.37331e-011	-9.41509e-011	-9.44597e-011	-9.44177e-011	-9.49539e-011	-9.51596e-011	-9.56052e-011	-9.57111e-011	-9.61272e-011	-9.66416e-011	-9.6432e-011	-9.66881e-011	
FineR183	-9.01219e-011	-9.07758e-011	-9.13839e-011	-9.16488e-011	-9.21955e-011	-9.27563e-011	-9.2901e-011	-9.32819e-011	-9.36329e-011	-9.40011e-011	-9.39881e-011	-9.42422e-011	-9.48502e-011	-9.52441e-011	-9.52314e-011	-9.55594e-011	-9.55585e-011	-9.55638e-011	-9.6218e-011	-9.61617e-011	-9.62748e-011	
FineR184	-8.98539e-011	-9.06222e-011	-9.08808e-011	-9.10683e-011	-9.19462e-011	-9.23202e-011	-9.2423e-011	-9.30001e-011	-9.32677e-011	-9.37988e-011	-9.42546e-011	-9.42649e-011	-9.46254e-011	-9.49567e-011	-9.52436e-011	-9.53959e-011	-9.53428e-011	-9.5606e-011	-9.6028e-011	-9.61323e-011	-9.62978e-011	
FineR185	-8.99311e-011	-9.04478e-011	-9.10784e-011	-9.14124e-011	-9.18159e-011	-9.22123e-011	-9.27499e-011	-9.30293e-011	-9.36945e-011	-9.38959e-011	-9.40986e-011	-9.44077e-011	-9.45606e-011	-9.49475e-011	-9.49868e-011	-9.52565e-011	-9.54837e-011	-9.59396e-011	-9.61144e-011	-9.64039e-011	-9.64522e-011	
FineR186	-8.96625e-011	-9.02842e-011	-9.03523e-011	-9.09194e-011	-9.10467e-011	-9.13727e-011	-9.18459e-011	-9.20695e-011	-9.22859e-011	-9.27717e-011	-9.29325e-011	-9.32907e-011	-9.33784e-011	-9.38663e-011	-9.41518e-011	-9.434e-011	-9.45344e-011	-9.49369e-011	-9.53295e-011	-9.55208e-011	-9.57598e-011	
FineR187	-8.91789e-011	-9.00746e-011	-9.06604e-011	-9.09318e-011	-9.11279e-011	-9.16577e-011	-9.16273e-011	-9.22668e-011	-9.25521e-011	-9.24548e-011	-9.24891e-011	-9.25973e-011	-9.12262e-011	-9.14002e-011	-9.25574e-011	-9.27909e-011	-9.53239e-011	-9.57242e-011	-9.5147e-011	-9.52544e-011	-9.3322e-011	
FineR188	-8.99404e-011	-9.04505e-011	-9.07848e-011	-8.80416e-011	-8.80083e-011	-8.86545e-011	-8.86024e-011	-8.9153e-011	-8.94524e-011	-9.01211e-011	-9.02035e-011	-9.05984e-011	-9.08452e-011	-9.11234e-011	-9.18287e-011	-9.12388e-011	-9.23283e-011	-9.65096e-011	-9.62089e-011	-9.66478e-011	-9.7509e-011	
FineR189	-9.1057e-011	-9.17238e-011	-9.20897e-011	-9.23003e-011	-9.2684e-011	-9.29824e-011	-9.30494e-011	-9.35107e-011	-9.40781e-011	-9.44629e-011	-9.46856e-011	-9.48022e-011	-9.52776e-011	-9.69852e-011	-9.73573e-011	-9.71671e-011	-9.73946e-011	-9.74825e-011	-9.77815e-011	-9.79897e-011	-9.79952e-011	
FineR190	-9.16893e-011	-9.24315e-011	-9.2779e-011	-9.32029e-011	-9.36853e-011	-9.40978e-011	-9.42255e-011	-9.48194e-011	-9.52862e-011	-9.53625e-011	-9.56261e-011	-9.62924e-011	-9.64483e-011	-9.65778e-011	-9.69784e-011	-9.69835e-011	-9.73544e-011	-9.74389e-011	-9.75817e-011	-9.77692e-011	-9.83573e-011	
FineR191	-9.17369e-011	-9.18328e-011	-9.23945e-011	-9.30604e-011	-9.31293e-011	-9.34227e-011	-9.41994e-011	-9.44966e-011	-9.51014e-011	-9.54866e-011	-9.59203e-011	-9.58649e-011	-9.61478e-011	-9.62285e-011	-9.66123e-011	-9.68071e-011	-9.69565e-011	-9.71942e-011	-9.72603e-011	-9.77532e-011	-9.76274e-011	
FineR192	-9.12732e-011	-9.21577e-011	-9.21762e-011	-9.28935e-011	-9.2902e-011	-9.33049e-011	-9.37762e-011	-9.40238e-011	-9.40945e-011	-9.4298e-011	-9.48766e-011	-9.49517e-011	-9.51308e-011	-9.54195e-011	-9.57093e-011	-9.59534e-011	-9.63796e-011	-9.69256e-011	-9.72258e-011	-9.69927e-011	-9.74674e-011	
FineR193	-9.08547e-011	-9.16813e-011	-9.20797e-011	-9.22874e-011	-9.27842e-011	-9.33223e-011	-9.35777e-011	-9.37217e-011	-9.41172e-011	-9.44242e-011	-9.47105e-011	-9.49318e-011	-9.56904e-011	-9.60509e-011	-9.61511e-011	-9.65128e-011	-9.66676e-011	-9.67518e-011	-9.70415e-011	-9.68545e-011	-9.72446e-011	
FineR194	-9.10807e-011	-9.1873e-011	-9.27151e-011	-9.28661e-011	-9.30952e-011	-9.36412e-011	-9.41383e-011	-9.44556e-011	-9.50228e-011	-9.54994e-011	-9.56876e-011	-9.59415e-011	-9.63971e-011	-9.65663e-011	-9.66071e-011	-9.66395e-011	-9.68631e-011	-9.71593e-011	-9.72289e-011	-9.7521e-011	-9.7703e-011	
FineR195	-9.10009e-011	-9.22901e-011	-9.23098e-011	-9.24206e-011	-9.26435e-011	-9.31377e-011	-9.31485e-011	-9.3495e-011	-9.40037e-011	-9.4179e-011	-9.46485e-011	-9.50199e-011	-9.53512e-011	-9.55783e-011	-9.59872e-011	-9.60093e-011	-9.6253e-011	-9.62093e-011	-9.62514e-011	-9.61851e-011	-9.49037e-011	
FineR196	-8.77834e-011	-8.80746e-011	-8.81478e-011	-8.85207e-011	-8.90368e-011	-8.9063e-011	-9.31453e-011	-9.30332e-011	-9.34505e-011	-9.10502e-011	-9.1163e-011	-9.2394e-011	-9.1989e-011	-9.22518e-011	-9.27965e-011	-9.28476e-011	-9.29162e-011	-9.33567e-011	-9.33035e-011	-9.34591e-011	-9.39467e-011	
FineR197	-8.72447e-011	-8.80828e-011	-8.85769e-011	-8.8725e-011	-8.90015e-011	-9.26872e-011	-9.19635e-011	-9.29212e-011	-9.31001e-011	-9.33359e-011	-9.33273e-011	-9.3363e-011	-9.3941e-011	-9.43752e-011	-9.4433e-011	-9.4472e-011	-9.47475e-011	-9.46985e-011	-9.48695e-011	-9.54938e-011	-9.48585e-011	
FineR198	-8.79287e-011	-8.86176e-011	-8.88401e-011	-9.03661e-011	-8.9121e-011	-8.97199e-011	-9.01285e-011	-9.04797e-011	-9.06116e-011	-9.06928e-011	-9.12991e-011	-9.15651e-011	-9.36937e-011	-9.36549e-011	-9.37395e-011	-9.30796e-011	-9.24967e-011	-9.29748e-011	-9.52302e-011	-9.54896e-011	-9.52642e-011	
FineR199	-8.85193e-011	-8.97788e-011	-9.06314e-011	-9.06005e-011	-9.05995e-011	-9.11768e-011	-9.17246e-011	-9.17616e-011	-9.23933e-011	-9.35752e-011	-9.29894e-011	-9.3513e-011	-9.36233e-011	-9.19795e-011	-9.37844e-011	-9.25514e-011	-9.29076e-011	-9.34626e-011	-9.36332e-011	-9.37599e-011	-9.39959e-011	
FineR200	-8.74444e-011	-8.83908e-011	-8.85735e-011	-9.12614e-011	-9.15846e-011	-9.15212e-011	-9.26722e-011	-9.25383e-011	-9.28255e-011	-9.3593e-011	-9.36005e-011	-9.37935e-011	-9.39238e-011	-9.4284e-011	-9.43872e-011	-9.48617e-011	-9.51481e-011	-9.53462e-011	-9.40498e-011	-9.38822e-011	-9.37813e-011	
MinCout:	-8.72447e-011	FineR:	197	FineC:	0

