	CoarseC0	CoarseC10	CoarseC20	CoarseC30	CoarseC40	CoarseC50	CoarseC60	CoarseC70	CoarseC80	CoarseC90	CoarseC100	CoarseC110	CoarseC120	CoarseC130	CoarseC140	CoarseC150	CoarseC160	CoarseC170	CoarseC180	CoarseC190	CoarseC200	CoarseC210	CoarseC220	CoarseC230	CoarseC240	CoarseC250	
CoarseR0	5.40279e-013	1.86191e-012	2.08771e-012	2.32963e-012	2.52733e-012	2.72287e-012	2.92057e-012	3.08036e-012	3.26747e-012	3.43265e-012	3.59223e-012	3.71563e-012	3.83892e-012	3.96208e-012	4.08511e-012	4.16706e-012	4.24895e-012	4.33078e-012	4.41927e-012	4.5011e-012	4.54199e-012	4.63079e-012	4.6717e-012	4.71259e-012	4.76073e-012	4.76073e-012	
CoarseR10	-1.22361e-010	-1.20088e-010	-1.18141e-010	-1.16156e-010	-1.14332e-010	-1.12079e-010	-1.11123e-010	-1.09601e-010	-1.08384e-010	-1.07201e-010	-1.0593e-010	-1.0487e-010	-1.03924e-010	-1.02977e-010	-1.02239e-010	-1.01502e-010	-1.0087e-010	-1.00133e-010	-9.94986e-011	-9.90747e-011	-9.84373e-011	-9.80114e-011	-9.77981e-011	-9.74703e-011	-9.70416e-011	-9.6827e-011	
CoarseR20	-3.42366e-010	-3.36625e-010	-3.31304e-010	-3.25929e-010	-3.21469e-010	-3.17869e-010	-3.14003e-010	-3.10476e-010	-3.07431e-010	-3.04396e-010	-3.02048e-010	-2.99706e-010	-2.97726e-010	-2.95745e-010	-2.93762e-010	-2.92099e-010	-2.90459e-010	-2.89249e-010	-2.87924e-010	-2.86935e-010	-2.86272e-010	-2.84935e-010	-2.84265e-010	-2.83593e-010	-2.82917e-010	-2.82239e-010	
CoarseR30	-4.42502e-010	-4.34165e-010	-4.2704e-010	-4.19829e-010	-4.13953e-010	-4.08459e-010	-4.03303e-010	-3.98754e-010	-3.94556e-010	-3.91042e-010	-3.87642e-010	-3.84576e-010	-3.81716e-010	-3.78856e-010	-3.76838e-010	-3.74819e-010	-3.72457e-010	-3.7093e-010	-3.69395e-010	-3.67853e-010	-3.66305e-010	-3.65106e-010	-3.64392e-010	-3.63312e-010	-3.62465e-010	-3.61738e-010	
CoarseR40	-4.53272e-010	-4.44384e-010	-4.3605e-010	-4.28668e-010	-4.22173e-010	-4.15283e-010	-4.10114e-010	-4.04707e-010	-3.99992e-010	-3.95939e-010	-3.91915e-010	-3.88189e-010	-3.84806e-010	-3.81686e-010	-3.78906e-010	-3.76131e-010	-3.73581e-010	-3.72301e-010	-3.70092e-010	-3.68443e-010	-3.66784e-010	-3.65487e-010	-3.63813e-010	-3.62507e-010	-3.61752e-010	-3.60991e-010	
CoarseR50	-4.13595e-010	-4.09737e-010	-4.04286e-010	-3.99113e-010	-3.94176e-010	-3.89041e-010	-3.85106e-010	-3.7988e-010	-3.76459e-010	-3.72736e-010	-3.69028e-010	-3.66699e-010	-3.63691e-010	-3.6176e-010	-3.59106e-010	-3.57089e-010	-3.5445e-010	-3.52752e-010	-3.51049e-010	-3.49262e-010	-3.47547e-010	-3.4614e-010	-3.45026e-010	-3.43609e-010	-3.42504e-010	-3.41781e-010	
CoarseR60	-3.64107e-010	-3.62912e-010	-3.60996e-010	-3.58711e-010	-3.56059e-010	-3.51324e-010	-3.47432e-010	-3.46193e-010	-3.42819e-010	-3.40229e-010	-3.36185e-010	-3.3399e-010	-3.31432e-010	-3.28882e-010	-3.27737e-010	-3.25627e-010	-3.24876e-010	-3.23047e-010	-3.21594e-010	-3.20073e-010	-3.1928e-010	-3.17402e-010	-3.1625e-010	-3.15014e-010	-3.1393e-010	-3.13421e-010	
CoarseR70	-3.13605e-010	-3.14494e-010	-3.1505e-010	-3.15143e-010	-3.13106e-010	-3.11129e-010	-3.08329e-010	-3.07475e-010	-3.05138e-010	-3.03964e-010	-3.03147e-010	-3.00755e-010	-2.99537e-010	-2.9764e-010	-2.95604e-010	-2.95166e-010	-2.9315e-010	-2.92725e-010	-2.91418e-010	-2.90563e-010	-2.89301e-010	-2.88421e-010	-2.87577e-010	-2.86695e-010	-2.85407e-010	-2.8452e-010	
CoarseR80	-2.74071e-010	-2.73711e-010	-2.77086e-010	-2.77336e-010	-2.77753e-010	-2.77179e-010	-2.76612e-010	-2.75105e-010	-2.73485e-010	-2.72371e-010	-2.71184e-010	-2.70743e-010	-2.69921e-010	-2.68574e-010	-2.67781e-010	-2.67257e-010	-2.65058e-010	-2.64556e-010	-2.6479e-010	-2.64086e-010	-2.63134e-010	-2.62648e-010	-2.61703e-010	-2.61477e-010	-2.59808e-010	-2.5913e-010	
CoarseR90	-2.38837e-010	-2.40789e-010	-2.43403e-010	-2.45192e-010	-2.45856e-010	-2.47344e-010	-2.46547e-010	-2.46065e-010	-2.45997e-010	-2.46205e-010	-2.44597e-010	-2.43461e-010	-2.43523e-010	-2.41874e-010	-2.41027e-010	-2.4144e-010	-2.41326e-010	-2.40747e-010	-2.39459e-010	-2.38647e-010	-2.38842e-010	-2.38315e-010	-2.3728e-010	-2.36993e-010	-2.36466e-010	-2.36183e-010	
CoarseR100	-2.07877e-010	-2.0977e-010	-2.12746e-010	-2.15985e-010	-2.17722e-010	-2.18523e-010	-2.18863e-010	-2.19685e-010	-2.19413e-010	-2.187e-010	-2.19559e-010	-2.1947e-010	-2.18675e-010	-2.18352e-010	-2.17225e-010	-2.17528e-010	-2.17445e-010	-2.17363e-010	-2.16717e-010	-2.16644e-010	-2.16077e-010	-2.16174e-010	-2.15613e-010	-2.15271e-010	-2.15432e-010	-2.15092e-010	
CoarseR110	-1.80936e-010	-1.83403e-010	-1.86952e-010	-1.89856e-010	-1.92377e-010	-1.93837e-010	-1.95501e-010	-1.95506e-010	-1.95751e-010	-1.96606e-010	-1.95945e-010	-1.97015e-010	-1.96115e-010	-1.96769e-010	-1.96447e-010	-1.96622e-010	-1.97009e-010	-1.96201e-010	-1.96596e-010	-1.96497e-010	-1.96602e-010	-1.96711e-010	-1.96824e-010	-1.96741e-010	-1.95561e-010	-1.95757e-010	
CoarseR120	-1.59778e-010	-1.6249e-010	-1.62808e-010	-1.67582e-010	-1.69917e-010	-1.70504e-010	-1.71918e-010	-1.73313e-010	-1.75033e-010	-1.75105e-010	-1.75649e-010	-1.75422e-010	-1.76556e-010	-1.78055e-010	-1.78025e-010	-1.78188e-010	-1.78361e-010	-1.78046e-010	-1.78562e-010	-1.78938e-010	-1.79001e-010	-1.78189e-010	-1.78259e-010	-1.78848e-010	-1.79036e-010	-1.78414e-010	
CoarseR130	-1.41241e-010	-1.41646e-010	-1.43722e-010	-1.466e-010	-1.50664e-010	-1.5223e-010	-1.53641e-010	-1.55203e-010	-1.56251e-010	-1.569e-010	-1.58449e-010	-1.59439e-010	-1.59232e-010	-1.604e-010	-1.61945e-010	-1.62786e-010	-1.62939e-010	-1.63114e-010	-1.62952e-010	-1.63971e-010	-1.63141e-010	-1.63827e-010	-1.63526e-010	-1.63534e-010	-1.64396e-010	-1.64259e-010	
CoarseR140	-1.27251e-010	-1.24685e-010	-1.26244e-010	-1.29899e-010	-1.32267e-010	-1.3456e-010	-1.37426e-010	-1.39278e-010	-1.39688e-010	-1.41029e-010	-1.42024e-010	-1.42748e-010	-1.43551e-010	-1.44736e-010	-1.45924e-010	-1.46854e-010	-1.46836e-010	-1.48558e-010	-1.48212e-010	-1.49226e-010	-1.48885e-010	-1.50256e-010	-1.49414e-010	-1.50595e-010	-1.49914e-010	-1.50749e-010	
CoarseR150	-1.17409e-010	-1.13022e-010	-1.1237e-010	-1.15813e-010	-1.18759e-010	-1.22611e-010	-1.23367e-010	-1.25222e-010	-1.25906e-010	-1.28739e-010	-1.29672e-010	-1.30729e-010	-1.31152e-010	-1.32479e-010	-1.32561e-010	-1.3264e-010	-1.34719e-010	-1.35571e-010	-1.36567e-010	-1.36209e-010	-1.37216e-010	-1.37086e-010	-1.38242e-010	-1.38251e-010	-1.38761e-010	-1.39421e-010	
CoarseR160	-1.11e-010	-1.07539e-010	-1.02258e-010	-1.01545e-010	-1.04733e-010	-1.07695e-010	-1.0988e-010	-1.10782e-010	-1.1385e-010	-1.15351e-010	-1.1624e-010	-1.18176e-010	-1.19103e-010	-1.19873e-010	-1.19863e-010	-1.20874e-010	-1.21461e-010	-1.23072e-010	-1.24189e-010	-1.24292e-010	-1.2466e-010	-1.25164e-010	-1.2741e-010	-1.27037e-010	-1.27675e-010	-1.29044e-010	
CoarseR170	-1.0381e-010	-1.01388e-010	-9.58451e-011	-9.05307e-011	-9.13379e-011	-9.50653e-011	-9.7785e-011	-9.9231e-011	-1.01712e-010	-1.03534e-010	-1.05779e-010	-1.07774e-010	-1.0847e-010	-1.102e-010	-1.10992e-010	-1.11894e-010	-1.12906e-010	-1.14382e-010	-1.14606e-010	-1.15847e-010	-1.16799e-010	-1.17909e-010	-1.18112e-010	-1.18722e-010	-1.19207e-010	-1.19821e-010	
CoarseR180	-9.94237e-011	-9.69959e-011	-9.24348e-011	-8.61594e-011	-8.23489e-011	-8.41773e-011	-8.79586e-011	-9.03983e-011	-9.25661e-011	-9.46527e-011	-9.65052e-011	-9.74918e-011	-9.86885e-011	-1.0035e-010	-1.00823e-010	-1.01646e-010	-1.03938e-010	-1.04499e-010	-1.05512e-010	-1.05538e-010	-1.05887e-010	-1.07011e-010	-1.07951e-010	-1.09784e-010	-1.09777e-010	-1.09969e-010	
CoarseR190	-9.63285e-011	-9.20591e-011	-8.74606e-011	-8.15819e-011	-7.53749e-011	-7.27816e-011	-7.67393e-011	-7.97733e-011	-8.09713e-011	-8.37278e-011	-8.64265e-011	-8.74783e-011	-8.985e-011	-9.10639e-011	-9.18244e-011	-9.36942e-011	-9.42769e-011	-9.53193e-011	-9.63538e-011	-9.73804e-011	-9.85098e-011	-9.88498e-011	-1.00546e-010	-1.0089e-010	-1.02229e-010	-1.02688e-010	
CoarseR200	-9.20735e-011	-9.02553e-011	-8.4902e-011	-7.83564e-011	-7.21765e-011	-6.57672e-011	-6.78605e-011	-7.13841e-011	-7.31033e-011	-7.53159e-011	-7.72104e-011	-7.86399e-011	-8.14982e-011	-8.22947e-011	-8.31765e-011	-8.48718e-011	-8.62653e-011	-8.72068e-011	-8.86929e-011	-8.97236e-011	-9.08517e-011	-9.19756e-011	-9.26334e-011	-9.35205e-011	-9.47444e-011	-9.43929e-011	
CoarseR210	-9.15272e-011	-8.83884e-011	-8.33339e-011	-7.66611e-011	-6.9891e-011	-6.4562e-011	-6.13695e-011	-6.34788e-011	-6.61679e-011	-6.74814e-011	-7.02926e-011	-7.17644e-011	-7.3294e-011	-7.41095e-011	-7.57503e-011	-7.707e-011	-7.8327e-011	-8.06227e-011	-8.07417e-011	-8.31208e-011	-8.41405e-011	-8.48034e-011	-8.64538e-011	-8.75625e-011	-8.78791e-011	-8.8391e-011	
CoarseR220	-9.14801e-011	-8.97585e-011	-8.27695e-011	-7.6577e-011	-6.92138e-011	-6.33395e-011	-5.83107e-011	-5.66793e-011	-5.89573e-011	-6.03426e-011	-6.27161e-011	-6.51415e-011	-6.7646e-011	-6.78291e-011	-6.89905e-011	-7.11443e-011	-7.20231e-011	-7.37869e-011	-7.4739e-011	-7.65695e-011	-7.75794e-011	-7.92053e-011	-8.11088e-011	-8.141e-011	-8.34837e-011	-8.3785e-011	
CoarseR230	-9.09634e-011	-8.90399e-011	-8.29599e-011	-7.75121e-011	-6.85576e-011	-6.15264e-011	-5.56085e-011	-5.07967e-011	-5.12956e-011	-5.31569e-011	-5.60529e-011	-5.8012e-011	-6.00073e-011	-6.2495e-011	-6.3615e-011	-6.56772e-011	-6.73854e-011	-6.78219e-011	-7.00865e-011	-7.14068e-011	-7.29072e-011	-7.4805e-011	-7.55021e-011	-7.74891e-011	-7.8573e-011	-7.8934e-011	
CoarseR240	-9.14919e-011	-9.10233e-011	-8.46963e-011	-7.7836e-011	-6.9269e-011	-6.22599e-011	-5.57657e-011	-4.81467e-011	-4.46089e-011	-4.7861e-011	-5.07669e-011	-5.31651e-011	-5.55632e-011	-5.75276e-011	-5.91398e-011	-6.12341e-011	-6.20179e-011	-6.37072e-011	-6.59539e-011	-6.7278e-011	-6.90739e-011	-7.00514e-011	-7.16215e-011	-7.31956e-011	-7.38291e-011	-7.41036e-011	
CoarseR250	-9.44209e-011	-9.16808e-011	-8.5206e-011	-7.93743e-011	-7.00496e-011	-6.19297e-011	-5.54373e-011	-4.83065e-011	-4.2875e-011	-4.26041e-011	-4.59294e-011	-4.83464e-011	-5.07575e-011	-5.35758e-011	-5.51867e-011	-5.63152e-011	-5.79286e-011	-5.96103e-011	-6.14172e-011	-6.27309e-011	-6.45203e-011	-6.63924e-011	-6.73591e-011	-6.84762e-011	-6.95344e-011	-7.06502e-011	
MinCout:	5.40279e-013	CoarseR:	0	CoarseC:	0

	CoarseC70	CoarseC71	CoarseC72	CoarseC73	CoarseC74	CoarseC75	CoarseC76	CoarseC77	CoarseC78	CoarseC79	CoarseC80	CoarseC81	CoarseC82	CoarseC83	CoarseC84	CoarseC85	CoarseC86	CoarseC87	CoarseC88	CoarseC89	CoarseC90	
CoarseR240	-4.86934e-011	-4.85693e-011	-4.80445e-011	-4.70006e-011	-4.64756e-011	-4.54387e-011	-4.63099e-011	-4.5785e-011	-4.56668e-011	-4.51404e-011	-4.45663e-011	-4.40408e-011	-4.53586e-011	-4.48324e-011	-4.51691e-011	-4.5096e-011	-4.58806e-011	-4.67806e-011	-4.67052e-011	-4.704e-011	-4.6511e-011	
CoarseR241	-4.9092e-011	-4.71941e-011	-4.70731e-011	-4.75448e-011	-4.65025e-011	-4.6383e-011	-4.58591e-011	-4.48265e-011	-4.43025e-011	-4.56226e-011	-4.50978e-011	-4.40727e-011	-4.39997e-011	-4.38859e-011	-4.56954e-011	-4.60289e-011	-4.55025e-011	-4.58375e-011	-4.57636e-011	-4.70691e-011	-4.69952e-011	
CoarseR242	-4.87152e-011	-4.85912e-011	-4.71456e-011	-4.65758e-011	-4.6456e-011	-4.6456e-011	-4.58881e-011	-4.53648e-011	-4.47831e-011	-4.42606e-011	-4.41457e-011	-4.46053e-011	-4.49387e-011	-4.4414e-011	-4.47489e-011	-4.46751e-011	-4.45601e-011	-4.54604e-011	-4.57943e-011	-4.48239e-011	-4.60557e-011	
CoarseR243	-4.86639e-011	-4.82165e-011	-4.8093e-011	-4.70487e-011	-4.65289e-011	-4.64094e-011	-4.49715e-011	-4.48553e-011	-4.53213e-011	-4.42917e-011	-4.41768e-011	-4.36554e-011	-4.35417e-011	-4.34682e-011	-4.47806e-011	-4.42581e-011	-4.45921e-011	-4.45189e-011	-4.4854e-011	-4.57512e-011	-4.56779e-011	
CoarseR244	-4.86849e-011	-4.81664e-011	-4.71206e-011	-4.66019e-011	-4.55629e-011	-4.60355e-011	-4.59166e-011	-4.48836e-011	-4.43646e-011	-4.42495e-011	-4.37291e-011	-4.36885e-011	-4.36151e-011	-4.35016e-011	-4.34284e-011	-4.33157e-011	-4.32428e-011	-4.49982e-011	-4.44777e-011	-4.48119e-011	-4.474e-011	
CoarseR245	-4.86849e-011	-4.76373e-011	-4.76716e-011	-4.66274e-011	-4.61092e-011	-4.599e-011	-4.49555e-011	-4.44375e-011	-4.34098e-011	-4.38764e-011	-4.37619e-011	-4.32421e-011	-4.26682e-011	-4.21491e-011	-4.30157e-011	-4.29418e-011	-4.32762e-011	-4.3651e-011	-4.3539e-011	-4.44365e-011	-4.47697e-011	
CoarseR246	-4.87054e-011	-4.81895e-011	-4.71435e-011	-4.66274e-011	-4.5144e-011	-4.60176e-011	-4.55005e-011	-4.44675e-011	-4.39501e-011	-4.38353e-011	-4.24063e-011	-4.37211e-011	-4.32027e-011	-4.30896e-011	-4.20735e-011	-4.20011e-011	-4.23753e-011	-4.32367e-011	-4.31643e-011	-4.34988e-011	-4.29807e-011	
CoarseR247	-4.82626e-011	-4.82121e-011	-4.76968e-011	-4.75743e-011	-4.65328e-011	-4.60176e-011	-4.45401e-011	-4.40237e-011	-4.39821e-011	-4.38673e-011	-4.3351e-011	-4.27721e-011	-4.22565e-011	-4.21459e-011	-4.30505e-011	-4.24791e-011	-4.24079e-011	-4.22982e-011	-4.22273e-011	-4.2563e-011	-4.39095e-011	
CoarseR248	-4.87253e-011	-4.77706e-011	-4.67247e-011	-4.66048e-011	-4.70847e-011	-4.60447e-011	-4.55301e-011	-4.44969e-011	-4.43817e-011	-4.38673e-011	-4.28437e-011	-4.23291e-011	-4.31977e-011	-4.17755e-011	-4.25502e-011	-4.11332e-011	-4.23691e-011	-4.1926e-011	-4.22597e-011	-4.30858e-011	-4.35389e-011	
CoarseR249	-4.82848e-011	-4.82341e-011	-4.76723e-011	-4.7159e-011	-4.61175e-011	-4.5604e-011	-4.45693e-011	-4.44538e-011	-4.49277e-011	-4.38988e-011	-4.3385e-011	-4.23629e-011	-4.18489e-011	-4.17385e-011	-4.21799e-011	-4.20697e-011	-4.15557e-011	-4.18885e-011	-4.18169e-011	-4.26767e-011	-4.21983e-011	
CoarseR250	-4.83065e-011	-4.81834e-011	-4.76723e-011	-4.6629e-011	-4.56778e-011	-4.56328e-011	-4.55145e-011	-4.40866e-011	-4.39717e-011	-4.34588e-011	-4.24352e-011	-4.19222e-011	-4.2792e-011	-4.26527e-011	-4.12376e-011	-4.11299e-011	-4.10595e-011	-4.19223e-011	-4.18509e-011	-4.1338e-011	-4.22351e-011	
CoarseR251	-4.82555e-011	-4.77454e-011	-4.76961e-011	-4.71854e-011	-4.61438e-011	-4.55878e-011	-4.50763e-011	-4.40445e-011	-4.35326e-011	-4.3492e-011	-4.33781e-011	-4.28663e-011	-4.18171e-011	-4.13082e-011	-4.12003e-011	-4.16643e-011	-4.19937e-011	-4.0583e-011	-4.0916e-011	-4.09697e-011	-4.21981e-011	
CoarseR252	-4.88189e-011	-4.77689e-011	-4.72594e-011	-4.62162e-011	-4.60973e-011	-4.51506e-011	-4.51069e-011	-4.49895e-011	-4.35656e-011	-4.34514e-011	-4.29406e-011	-4.18867e-011	-4.13788e-011	-4.22465e-011	-4.08326e-011	-4.07252e-011	-4.06541e-011	-4.15182e-011	-4.06033e-011	-4.09346e-011	-4.08616e-011	
CoarseR253	-4.82764e-011	-4.73333e-011	-4.72113e-011	-4.61695e-011	-4.66546e-011	-4.56158e-011	-4.51069e-011	-4.40748e-011	-4.35247e-011	-4.34514e-011	-4.29755e-011	-4.24289e-011	-4.2318e-011	-4.09039e-011	-4.07963e-011	-4.02875e-011	-4.06891e-011	-3.97767e-011	-4.10807e-011	-4.05692e-011	-4.08996e-011	
CoarseR254	-4.8842e-011	-4.8717e-011	-4.72366e-011	-4.67291e-011	-4.56888e-011	-4.51809e-011	-4.41473e-011	-4.40325e-011	-4.45116e-011	-4.34838e-011	-4.25007e-011	-4.14816e-011	-4.09753e-011	-4.08674e-011	-4.12653e-011	-4.076e-011	-4.0653e-011	-4.07172e-011	-4.01462e-011	-3.96374e-011	-3.9969e-011	
CoarseR255	-4.87908e-011	-4.7742e-011	-4.72366e-011	-4.71883e-011	-4.62493e-011	-4.52106e-011	-4.47032e-011	-4.45861e-011	-4.35568e-011	-4.30068e-011	-4.28952e-011	-4.24611e-011	-4.23503e-011	-4.13352e-011	-4.08308e-011	-4.07236e-011	-3.98889e-011	-4.02178e-011	-3.97099e-011	-4.05745e-011	-4.0501e-011	
CoarseR255	-4.87908e-011	-4.73585e-011	-4.72366e-011	-4.61946e-011	-4.66355e-011	-4.52106e-011	-4.5093e-011	-4.45861e-011	-4.35568e-011	-4.30068e-011	-4.28952e-011	-4.28544e-011	-4.23503e-011	-4.13352e-011	-4.08308e-011	-4.07236e-011	-3.98889e-011	-4.02178e-011	-3.97099e-011	-4.05745e-011	-4.0501e-011	
CoarseR255	-4.87908e-011	-4.7742e-011	-4.72366e-011	-4.71152e-011	-4.62493e-011	-4.52106e-011	-4.5093e-011	-4.36712e-011	-4.35568e-011	-4.30068e-011	-4.28952e-011	-4.28544e-011	-4.23503e-011	-4.13352e-011	-4.08308e-011	-4.07236e-011	-3.98889e-011	-3.97825e-011	-3.97099e-011	-4.05745e-011	-4.0501e-011	
CoarseR255	-4.87908e-011	-4.7742e-011	-4.72366e-011	-4.61946e-011	-4.52548e-011	-4.6129e-011	-4.5093e-011	-4.45861e-011	-4.35568e-011	-4.30068e-011	-4.28952e-011	-4.24611e-011	-4.23503e-011	-4.13352e-011	-4.08308e-011	-4.07236e-011	-4.02893e-011	-4.02178e-011	-3.97099e-011	-3.96043e-011	-4.0501e-011	
CoarseR255	-4.87908e-011	-4.73585e-011	-4.72366e-011	-4.61946e-011	-4.70673e-011	-4.52106e-011	-4.5093e-011	-4.36712e-011	-4.35568e-011	-4.30068e-011	-4.28952e-011	-4.24611e-011	-4.23503e-011	-4.22399e-011	-4.08308e-011	-4.07236e-011	-3.98889e-011	-4.02178e-011	-3.97099e-011	-4.05745e-011	-4.0501e-011	
CoarseR255	-4.87908e-011	-4.73585e-011	-4.72366e-011	-4.71883e-011	-4.66823e-011	-4.52106e-011	-4.5093e-011	-4.45861e-011	-4.35568e-011	-4.30068e-011	-4.38761e-011	-4.24611e-011	-4.23503e-011	-4.09384e-011	-4.08308e-011	-4.07236e-011	-4.02893e-011	-4.02178e-011	-3.97099e-011	-4.05745e-011	-4.0501e-011	
MinCout:	-3.96043e-011	CoarseR:	255	CoarseC:	89

	FineC0	FineC10	FineC20	FineC30	FineC40	FineC50	FineC60	FineC70	FineC80	FineC90	FineC100	FineC110	FineC120	FineC130	FineC140	FineC150	FineC160	FineC170	FineC180	FineC190	FineC200	FineC210	FineC220	FineC230	FineC240	FineC250	
FineR0	-6.61534e-011	-5.81836e-011	-5.1633e-011	-4.85309e-011	-4.59472e-011	-4.48015e-011	-4.37025e-011	-4.39952e-011	-4.42918e-011	-4.51609e-011	-4.55352e-011	-4.6856e-011	-4.72338e-011	-4.72044e-011	-4.75859e-011	-4.75121e-011	-4.75579e-011	-4.79432e-011	-4.79432e-011	-4.88878e-011	-4.79166e-011	-4.92746e-011	-4.83056e-011	-4.87681e-011	-4.92493e-011	-4.97131e-011	
FineR10	-6.61741e-011	-5.78213e-011	-5.27159e-011	-4.8577e-011	-4.6007e-011	-4.44749e-011	-4.24274e-011	-4.1877e-011	-4.12612e-011	-4.21267e-011	-4.24948e-011	-4.42103e-011	-4.41771e-011	-4.40985e-011	-4.44761e-011	-4.39981e-011	-4.53468e-011	-4.48301e-011	-4.53186e-011	-4.57007e-011	-4.57007e-011	-4.61544e-011	-4.56739e-011	-4.61298e-011	-4.61298e-011	-4.7026e-011	
FineR20	-6.67273e-011	-5.81849e-011	-5.36109e-011	-4.8607e-011	-4.60401e-011	-4.44702e-011	-4.34086e-011	-4.18803e-011	-4.12628e-011	-4.16643e-011	-4.20317e-011	-4.28994e-011	-4.32694e-011	-4.36413e-011	-4.36105e-011	-4.30887e-011	-4.39862e-011	-4.39569e-011	-4.39569e-011	-4.43363e-011	-4.43786e-011	-4.52754e-011	-4.47609e-011	-4.56565e-011	-4.52469e-011	-4.57007e-011	
FineR30	-6.67344e-011	-5.91346e-011	-5.26288e-011	-4.95559e-011	-4.69873e-011	-4.54167e-011	-4.29779e-011	-4.19191e-011	-4.17343e-011	-4.07252e-011	-4.06541e-011	-4.15192e-011	-4.18885e-011	-4.22597e-011	-4.31972e-011	-4.357e-011	-4.30482e-011	-4.3539e-011	-4.39156e-011	-4.39569e-011	-4.3886e-011	-4.43363e-011	-4.43363e-011	-4.52754e-011	-4.43084e-011	-4.47609e-011	
FineR40	-6.63334e-011	-5.8727e-011	-5.32214e-011	-4.95063e-011	-4.69421e-011	-4.40793e-011	-4.29398e-011	-4.27453e-011	-4.12997e-011	-4.16623e-011	-4.02154e-011	-4.0583e-011	-4.05473e-011	-4.18885e-011	-4.22597e-011	-4.22273e-011	-4.26023e-011	-4.34988e-011	-4.3539e-011	-4.39156e-011	-4.39156e-011	-4.42941e-011	-4.3886e-011	-4.43363e-011	-4.52322e-011	-4.42664e-011	
FineR50	-6.66547e-011	-6.00838e-011	-5.35774e-011	-5.05046e-011	-4.652e-011	-4.44646e-011	-4.24618e-011	-4.23139e-011	-4.12997e-011	-4.12267e-011	-4.15902e-011	-4.0583e-011	-4.19223e-011	-4.18885e-011	-4.22597e-011	-4.2189e-011	-4.3125e-011	-4.26023e-011	-4.34988e-011	-4.29791e-011	-4.39156e-011	-4.39156e-011	-4.3845e-011	-4.3886e-011	-4.34754e-011	-4.3927e-011	
FineR60	-6.72934e-011	-6.00838e-011	-5.35774e-011	-5.04537e-011	-4.75132e-011	-4.44646e-011	-4.3832e-011	-4.23139e-011	-4.22399e-011	-4.12267e-011	-4.15902e-011	-4.15182e-011	-4.14826e-011	-4.18509e-011	-4.18169e-011	-4.2189e-011	-4.26327e-011	-4.21563e-011	-4.34988e-011	-4.3539e-011	-4.34675e-011	-4.35075e-011	-4.35075e-011	-4.3886e-011	-4.3886e-011	-4.34754e-011	
FineR70	-6.82447e-011	-5.96785e-011	-5.35774e-011	-5.04537e-011	-4.78879e-011	-4.40394e-011	-4.3832e-011	-4.23139e-011	-4.22399e-011	-4.1625e-011	-4.11537e-011	-4.15182e-011	-4.14826e-011	-4.18509e-011	-4.22211e-011	-4.17452e-011	-4.2189e-011	-4.2563e-011	-4.30918e-011	-4.30918e-011	-4.34675e-011	-4.34675e-011	-4.35075e-011	-4.34357e-011	-4.3886e-011	-4.3886e-011	
FineR80	-6.85611e-011	-5.96785e-011	-5.31657e-011	-5.04537e-011	-4.6974e-011	-4.44234e-011	-4.34048e-011	-4.36842e-011	-4.22399e-011	-4.11906e-011	-4.11537e-011	-4.15182e-011	-4.14826e-011	-4.18509e-011	-4.17796e-011	-4.18169e-011	-4.2189e-011	-4.2563e-011	-4.30529e-011	-4.30918e-011	-4.30918e-011	-4.34675e-011	-4.30581e-011	-4.35075e-011	-4.34357e-011	-4.3886e-011	
FineR90	-6.85611e-011	-5.96785e-011	-5.35206e-011	-5.04537e-011	-4.65541e-011	-4.44234e-011	-4.34048e-011	-4.23498e-011	-4.22399e-011	-4.11906e-011	-4.11537e-011	-4.15182e-011	-4.14461e-011	-4.14103e-011	-4.17796e-011	-4.18169e-011	-4.17823e-011	-4.26801e-011	-4.21563e-011	-4.30918e-011	-4.30918e-011	-4.34675e-011	-4.34675e-011	-4.35075e-011	-4.34357e-011	-4.34357e-011	
FineR100	-6.85611e-011	-5.96785e-011	-5.35206e-011	-5.04537e-011	-4.74679e-011	-4.44234e-011	-4.34048e-011	-4.23498e-011	-4.22399e-011	-4.11906e-011	-4.15532e-011	-4.10807e-011	-4.14461e-011	-4.14103e-011	-4.17796e-011	-4.22211e-011	-4.17823e-011	-4.26801e-011	-4.21563e-011	-4.30918e-011	-4.21232e-011	-4.34675e-011	-4.34675e-011	-4.30581e-011	-4.34357e-011	-4.34357e-011	
FineR110	-6.85611e-011	-5.96785e-011	-5.35206e-011	-5.00379e-011	-4.74679e-011	-4.54095e-011	-4.34048e-011	-4.23498e-011	-4.12996e-011	-4.11906e-011	-4.15532e-011	-4.10807e-011	-4.14461e-011	-4.18134e-011	-4.08824e-011	-4.22211e-011	-4.13373e-011	-4.26801e-011	-4.21563e-011	-4.26447e-011	-4.30918e-011	-4.30194e-011	-4.34675e-011	-4.34675e-011	-4.44047e-011	-4.34357e-011	
FineR120	-6.85611e-011	-6.00157e-011	-5.44451e-011	-5.00379e-011	-4.74679e-011	-4.54095e-011	-4.37912e-011	-4.23498e-011	-4.26335e-011	-4.11906e-011	-4.15532e-011	-4.10807e-011	-4.14461e-011	-4.0916e-011	-4.08824e-011	-4.22211e-011	-4.17452e-011	-4.26801e-011	-4.21563e-011	-4.30529e-011	-4.30918e-011	-4.30194e-011	-4.34675e-011	-4.34675e-011	-4.29501e-011	-4.34357e-011	
FineR130	-6.85611e-011	-6.00157e-011	-5.35206e-011	-5.00379e-011	-4.74679e-011	-4.58325e-011	-4.37912e-011	-4.23498e-011	-4.12996e-011	-4.11906e-011	-4.11179e-011	-4.10807e-011	-4.14461e-011	-4.0916e-011	-4.08824e-011	-4.1374e-011	-4.17452e-011	-4.26801e-011	-4.26801e-011	-4.30529e-011	-4.30918e-011	-4.30194e-011	-4.34675e-011	-4.34675e-011	-4.20895e-011	-4.34357e-011	
FineR140	-6.85611e-011	-6.00157e-011	-5.35206e-011	-5.00379e-011	-4.74679e-011	-4.58325e-011	-4.37912e-011	-4.23498e-011	-4.22024e-011	-4.11906e-011	-4.11179e-011	-4.10807e-011	-4.14461e-011	-4.0916e-011	-4.08824e-011	-4.17796e-011	-4.17452e-011	-4.26801e-011	-4.17104e-011	-4.30529e-011	-4.30918e-011	-4.30194e-011	-4.34675e-011	-4.34675e-011	-4.34357e-011	-4.34357e-011	
FineR150	-6.85611e-011	-6.00157e-011	-5.44451e-011	-5.04028e-011	-4.74679e-011	-4.58325e-011	-4.37912e-011	-4.23498e-011	-4.22024e-011	-4.11906e-011	-4.11179e-011	-4.14814e-011	-4.14461e-011	-4.0916e-011	-4.04409e-011	-4.1374e-011	-4.17452e-011	-4.26801e-011	-4.17104e-011	-4.30529e-011	-4.26447e-011	-4.21232e-011	-4.34675e-011	-4.34675e-011	-4.2501e-011	-4.34357e-011	
FineR160	-6.81636e-011	-5.96116e-011	-5.44451e-011	-5.00379e-011	-4.74679e-011	-4.48475e-011	-4.37912e-011	-4.3255e-011	-4.22024e-011	-4.11906e-011	-4.11179e-011	-4.05825e-011	-4.05475e-011	-4.0916e-011	-4.08461e-011	-4.1374e-011	-4.17452e-011	-4.17823e-011	-4.17104e-011	-4.30529e-011	-4.30529e-011	-4.30194e-011	-4.30194e-011	-4.34675e-011	-4.34675e-011	-4.34357e-011	
FineR170	-6.81636e-011	-5.96116e-011	-5.40345e-011	-5.04028e-011	-4.78414e-011	-4.58325e-011	-4.37912e-011	-4.23498e-011	-4.22024e-011	-4.11906e-011	-4.11179e-011	-4.14814e-011	-4.14461e-011	-4.04766e-011	-4.04409e-011	-4.1374e-011	-4.17452e-011	-4.30858e-011	-4.17104e-011	-4.30529e-011	-4.30529e-011	-4.21232e-011	-4.30194e-011	-4.34675e-011	-4.2501e-011	-4.34357e-011	
FineR180	-6.85611e-011	-5.96116e-011	-5.40345e-011	-5.04028e-011	-4.74679e-011	-4.48475e-011	-4.37912e-011	-4.23498e-011	-4.22024e-011	-4.11906e-011	-4.11179e-011	-4.14814e-011	-4.14461e-011	-4.04766e-011	-4.10048e-011	-4.1374e-011	-4.27149e-011	-4.30858e-011	-4.26801e-011	-4.30529e-011	-4.30529e-011	-4.21232e-011	-4.30194e-011	-4.34675e-011	-4.2501e-011	-4.34357e-011	
FineR190	-6.85611e-011	-5.96116e-011	-5.40345e-011	-5.04028e-011	-4.78414e-011	-4.58325e-011	-4.37912e-011	-4.23498e-011	-4.22024e-011	-4.15877e-011	-4.11179e-011	-4.14814e-011	-4.14461e-011	-4.04766e-011	-4.14103e-011	-4.1374e-011	-4.17452e-011	-4.17452e-011	-4.17104e-011	-4.30529e-011	-4.30529e-011	-4.34275e-011	-4.30194e-011	-4.34675e-011	-4.3396e-011	-4.3396e-011	
FineR200	-6.85611e-011	-5.96116e-011	-5.44451e-011	-5.04028e-011	-4.78414e-011	-4.48475e-011	-4.37912e-011	-4.23498e-011	-4.22024e-011	-4.15877e-011	-4.11179e-011	-4.14814e-011	-4.05475e-011	-4.04766e-011	-4.08461e-011	-4.1374e-011	-4.27149e-011	-4.30858e-011	-4.17104e-011	-4.30529e-011	-4.30529e-011	-4.21232e-011	-4.30194e-011	-4.34675e-011	-4.34675e-011	-4.3845e-011	
FineR210	-6.81636e-011	-5.96116e-011	-5.40345e-011	-5.04028e-011	-4.78414e-011	-4.58325e-011	-4.37912e-011	-4.3255e-011	-4.22024e-011	-4.11906e-011	-4.11179e-011	-4.14814e-011	-4.14461e-011	-4.04766e-011	-4.08461e-011	-4.1374e-011	-4.17452e-011	-4.26421e-011	-4.17104e-011	-4.30529e-011	-4.30529e-011	-4.25322e-011	-4.30194e-011	-4.34675e-011	-4.34675e-011	-4.3845e-011	
FineR220	-6.81636e-011	-5.96116e-011	-5.40345e-011	-5.04028e-011	-4.78414e-011	-4.58325e-011	-4.37912e-011	-4.3255e-011	-4.22024e-011	-4.15877e-011	-4.11179e-011	-4.14814e-011	-4.0109e-011	-4.04766e-011	-4.14103e-011	-4.1374e-011	-4.27149e-011	-4.17452e-011	-4.17104e-011	-4.30529e-011	-4.30529e-011	-4.25322e-011	-4.30194e-011	-4.34675e-011	-4.2501e-011	-4.3396e-011	
FineR230	-6.81636e-011	-5.96116e-011	-5.40345e-011	-5.04028e-011	-4.78414e-011	-4.48475e-011	-4.37912e-011	-4.3255e-011	-4.22024e-011	-4.15877e-011	-4.11179e-011	-4.14814e-011	-4.05475e-011	-4.1374e-011	-4.14103e-011	-4.1374e-011	-4.17452e-011	-4.17452e-011	-4.17104e-011	-4.26069e-011	-4.30529e-011	-4.21232e-011	-4.30194e-011	-4.34675e-011	-4.3396e-011	-4.3396e-011	
FineR240	-6.81636e-011	-5.96116e-011	-5.40345e-011	-5.04028e-011	-4.78414e-011	-4.58325e-011	-4.37912e-011	-4.23498e-011	-4.22024e-011	-4.11546e-011	-4.11179e-011	-4.14814e-011	-4.10077e-011	-4.04766e-011	-4.14103e-011	-4.1374e-011	-4.27149e-011	-4.26421e-011	-4.17104e-011	-4.30529e-011	-4.30529e-011	-4.34275e-011	-4.30194e-011	-4.34675e-011	-4.2501e-011	-4.3396e-011	
FineR250	-6.81636e-011	-6.05454e-011	-5.40345e-011	-5.04028e-011	-4.78414e-011	-4.48475e-011	-4.37912e-011	-4.3255e-011	-4.22024e-011	-4.11546e-011	-4.11179e-011	-4.14814e-011	-4.10077e-011	-4.04766e-011	-4.14103e-011	-4.1374e-011	-4.17452e-011	-4.17452e-011	-4.17104e-011	-4.30529e-011	-4.30529e-011	-4.30194e-011	-4.30194e-011	-4.34675e-011	-4.3396e-011	-4.29854e-011	
MinCout:	-4.0109e-011	FineR:	220	FineC:	120

	FineC130	FineC131	FineC132	FineC133	FineC134	FineC135	FineC136	FineC137	FineC138	FineC139	FineC140	FineC141	FineC142	FineC143	FineC144	FineC145	FineC146	FineC147	FineC148	FineC149	FineC150	
FineR150	-4.04766e-011	-4.18134e-011	-4.18134e-011	-4.18134e-011	-4.18134e-011	-4.18134e-011	-4.18134e-011	-4.14103e-011	-4.14103e-011	-4.04409e-011	-4.08824e-011	-4.04409e-011	-4.17796e-011	-4.08824e-011	-4.1374e-011	-4.17796e-011	-4.17796e-011	-4.17796e-011	-4.1374e-011	-4.17796e-011	-4.17796e-011	
FineR151	-4.0916e-011	-4.18134e-011	-4.18134e-011	-4.18134e-011	-4.18134e-011	-4.18134e-011	-4.18134e-011	-4.18134e-011	-4.04409e-011	-4.14103e-011	-4.04409e-011	-4.08824e-011	-4.17796e-011	-4.17796e-011	-4.17796e-011	-4.1374e-011	-4.17796e-011	-4.1374e-011	-4.17796e-011	-4.1374e-011	-4.17796e-011	
FineR152	-4.0916e-011	-4.18134e-011	-4.18134e-011	-4.14103e-011	-4.18134e-011	-4.18134e-011	-4.18134e-011	-4.18134e-011	-4.04409e-011	-4.04409e-011	-4.04409e-011	-4.08824e-011	-4.08824e-011	-4.17796e-011	-4.1374e-011	-4.1374e-011	-4.17796e-011	-4.1374e-011	-4.17796e-011	-4.1374e-011	-4.17796e-011	
FineR153	-4.0916e-011	-4.18134e-011	-4.18134e-011	-4.18134e-011	-4.18134e-011	-4.18134e-011	-4.18134e-011	-4.14103e-011	-4.14103e-011	-4.04409e-011	-4.04409e-011	-4.04409e-011	-4.08824e-011	-4.17796e-011	-4.1374e-011	-4.17796e-011	-4.1374e-011	-4.17796e-011	-4.1374e-011	-4.17796e-011	-4.1374e-011	
FineR154	-4.0916e-011	-4.0916e-011	-4.18134e-011	-4.18134e-011	-4.18134e-011	-4.18134e-011	-4.14103e-011	-4.14103e-011	-4.04409e-011	-4.04409e-011	-4.04409e-011	-4.04409e-011	-4.08824e-011	-4.23459e-011	-4.17796e-011	-4.1374e-011	-4.17796e-011	-4.1374e-011	-4.17796e-011	-4.1374e-011	-4.17796e-011	
FineR155	-4.18134e-011	-4.18134e-011	-4.18134e-011	-4.18134e-011	-4.18134e-011	-4.18134e-011	-4.18134e-011	-4.08461e-011	-4.04409e-011	-4.08461e-011	-4.04409e-011	-4.08824e-011	-4.14466e-011	-4.17796e-011	-4.17796e-011	-4.1374e-011	-4.17796e-011	-4.1374e-011	-4.1374e-011	-4.17796e-011	-4.1374e-011	
FineR156	-4.0916e-011	-4.18134e-011	-4.0916e-011	-4.18134e-011	-4.18134e-011	-4.18134e-011	-4.14103e-011	-4.18134e-011	-4.14103e-011	-4.04409e-011	-4.04409e-011	-4.08824e-011	-4.17796e-011	-4.17796e-011	-4.17796e-011	-4.17796e-011	-4.23459e-011	-4.17796e-011	-4.17796e-011	-4.1374e-011	-4.1374e-011	
FineR157	-4.04766e-011	-4.18134e-011	-4.18134e-011	-4.18134e-011	-4.18134e-011	-4.18134e-011	-4.14103e-011	-4.14103e-011	-4.08461e-011	-4.04409e-011	-4.04409e-011	-4.08824e-011	-4.17796e-011	-4.17796e-011	-4.17796e-011	-4.1374e-011	-4.17796e-011	-4.1374e-011	-4.1374e-011	-4.17796e-011	-4.1374e-011	
FineR158	-4.0916e-011	-4.18134e-011	-4.18134e-011	-4.18134e-011	-4.18134e-011	-4.14103e-011	-4.18134e-011	-4.18134e-011	-4.14103e-011	-4.04409e-011	-4.04409e-011	-4.10048e-011	-4.08824e-011	-4.17796e-011	-4.1374e-011	-4.17796e-011	-4.17796e-011	-4.1374e-011	-4.1374e-011	-4.17796e-011	-4.1374e-011	
FineR159	-4.04766e-011	-4.0916e-011	-4.18134e-011	-4.18134e-011	-4.18134e-011	-4.18134e-011	-4.18134e-011	-4.18134e-011	-4.04409e-011	-4.04409e-011	-4.04409e-011	-4.04409e-011	-4.17796e-011	-4.17796e-011	-4.1374e-011	-4.17796e-011	-4.1374e-011	-4.17796e-011	-4.1374e-011	-4.17796e-011	-4.1374e-011	
FineR160	-4.04766e-011	-4.18134e-011	-4.18134e-011	-4.18134e-011	-4.18134e-011	-4.18134e-011	-4.18134e-011	-4.14103e-011	-4.18134e-011	-4.04409e-011	-4.04409e-011	-4.08824e-011	-4.08824e-011	-4.0476e-011	-4.17796e-011	-4.1374e-011	-4.1374e-011	-4.17796e-011	-4.1374e-011	-4.1374e-011	-4.17796e-011	
FineR161	-4.04766e-011	-4.18134e-011	-4.18134e-011	-4.18134e-011	-4.18134e-011	-4.18134e-011	-4.14103e-011	-4.18134e-011	-4.08461e-011	-4.04409e-011	-4.04409e-011	-4.08824e-011	-4.17796e-011	-4.17796e-011	-4.17796e-011	-4.17796e-011	-4.17796e-011	-4.1374e-011	-4.17796e-011	-4.1374e-011	-4.1374e-011	
FineR162	-4.0916e-011	-4.18134e-011	-4.18134e-011	-4.18134e-011	-4.18134e-011	-4.18134e-011	-4.18134e-011	-4.18134e-011	-4.14103e-011	-4.04409e-011	-4.04409e-011	-4.04409e-011	-4.17796e-011	-4.23459e-011	-4.17796e-011	-4.17796e-011	-4.17796e-011	-4.1374e-011	-4.17796e-011	-4.1374e-011	-4.17796e-011	
FineR163	-4.0916e-011	-4.18134e-011	-4.18134e-011	-4.18134e-011	-4.18134e-011	-4.18134e-011	-4.18134e-011	-4.14103e-011	-4.04409e-011	-4.04409e-011	-4.04409e-011	-4.17796e-011	-4.17796e-011	-4.23459e-011	-4.17796e-011	-4.17796e-011	-4.1374e-011	-4.1374e-011	-4.17796e-011	-4.1374e-011	-4.1374e-011	
FineR164	-4.0916e-011	-4.1374e-011	-4.18134e-011	-4.18134e-011	-4.18134e-011	-4.18134e-011	-4.18134e-011	-4.18134e-011	-4.04409e-011	-4.04409e-011	-4.10048e-011	-4.04409e-011	-4.17796e-011	-4.17796e-011	-4.17796e-011	-4.1374e-011	-4.1374e-011	-4.17796e-011	-4.1374e-011	-4.1374e-011	-4.17796e-011	
FineR165	-4.04766e-011	-4.18134e-011	-4.18134e-011	-4.18134e-011	-4.18134e-011	-4.18134e-011	-4.18134e-011	-4.18134e-011	-4.04409e-011	-4.04409e-011	-4.04409e-011	-4.04409e-011	-4.04409e-011	-4.17796e-011	-4.17796e-011	-4.1374e-011	-4.17796e-011	-4.17796e-011	-4.1374e-011	-4.17796e-011	-4.1374e-011	
FineR166	-4.0916e-011	-4.18134e-011	-4.18134e-011	-4.18134e-011	-4.18134e-011	-4.14103e-011	-4.18134e-011	-4.18134e-011	-4.04409e-011	-4.04409e-011	-4.04409e-011	-4.04409e-011	-4.17796e-011	-4.17796e-011	-4.17796e-011	-4.17796e-011	-4.1374e-011	-4.17796e-011	-4.1374e-011	-4.17796e-011	-4.1374e-011	
FineR167	-4.0916e-011	-4.04766e-011	-4.18134e-011	-4.18134e-011	-4.18134e-011	-4.18134e-011	-4.14103e-011	-4.18134e-011	-4.14103e-011	-4.04409e-011	-4.04409e-011	-4.08824e-011	-4.1338e-011	-4.17796e-011	-4.23459e-011	-4.17796e-011	-4.1374e-011	-4.1374e-011	-4.17796e-011	-4.1374e-011	-4.1374e-011	
FineR168	-4.04766e-011	-4.18134e-011	-4.18134e-011	-4.18134e-011	-4.18134e-011	-4.18134e-011	-4.14103e-011	-4.18134e-011	-4.14103e-011	-4.04409e-011	-4.04409e-011	-4.04409e-011	-4.17796e-011	-4.17796e-011	-4.1374e-011	-4.17796e-011	-4.1374e-011	-4.1374e-011	-4.17796e-011	-4.1374e-011	-4.1374e-011	
FineR169	-4.04766e-011	-4.0916e-011	-4.18134e-011	-4.18134e-011	-4.18134e-011	-4.18134e-011	-4.08461e-011	-4.04409e-011	-4.04409e-011	-4.04409e-011	-4.04409e-011	-4.04409e-011	-4.08824e-011	-4.1374e-011	-4.17796e-011	-4.1374e-011	-4.17796e-011	-4.1374e-011	-4.17796e-011	-4.1374e-011	-4.1374e-011	
FineR170	-4.04766e-011	-4.18134e-011	-4.18134e-011	-4.18134e-011	-4.18134e-011	-4.18134e-011	-4.18134e-011	-4.14103e-011	-4.04409e-011	-4.04409e-011	-4.04409e-011	-4.04409e-011	-4.17796e-011	-4.21826e-011	-4.1374e-011	-4.17796e-011	-4.1374e-011	-4.1374e-011	-4.17796e-011	-4.1374e-011	-4.1374e-011	
MinCout:	-4.04409e-011	FineR:	150	FineC:	139

