	CoarseC0	CoarseC10	CoarseC20	CoarseC30	CoarseC40	CoarseC50	CoarseC60	CoarseC70	CoarseC80	CoarseC90	CoarseC100	CoarseC110	CoarseC120	CoarseC130	CoarseC140	CoarseC150	CoarseC160	CoarseC170	CoarseC180	CoarseC190	CoarseC200	CoarseC210	CoarseC220	CoarseC230	CoarseC240	CoarseC250	
CoarseR0	-4.97817e-010	-4.68642e-010	-4.482e-010	-4.32217e-010	-4.19583e-010	-4.09547e-010	-4.01962e-010	-3.96044e-010	-3.91325e-010	-3.87669e-010	-3.84689e-010	-3.8249e-010	-3.8073e-010	-3.79488e-010	-3.78481e-010	-3.77801e-010	-3.77346e-010	-3.77219e-010	-3.77726e-010	-3.78666e-010	-3.79682e-010	-3.80631e-010	-3.81526e-010	-3.82146e-010	-3.8253e-010	-3.82765e-010	
CoarseR10	-3.7087e-010	-3.44918e-010	-3.26481e-010	-3.12154e-010	-3.00903e-010	-2.91989e-010	-2.8482e-010	-2.79176e-010	-2.74747e-010	-2.71406e-010	-2.68724e-010	-2.66854e-010	-2.65738e-010	-2.65775e-010	-2.66639e-010	-2.67779e-010	-2.6923e-010	-2.70832e-010	-2.72387e-010	-2.73992e-010	-2.75597e-010	-2.77119e-010	-2.78602e-010	-2.79831e-010	-2.81167e-010	-2.8217e-010	
CoarseR20	-2.81541e-010	-2.57838e-010	-2.41167e-010	-2.27993e-010	-2.1739e-010	-2.08973e-010	-2.02255e-010	-1.96875e-010	-1.92879e-010	-1.90056e-010	-1.88881e-010	-1.88636e-010	-1.8903e-010	-1.89845e-010	-1.91102e-010	-1.92577e-010	-1.94528e-010	-1.96538e-010	-1.98692e-010	-2.00892e-010	-2.03195e-010	-2.05452e-010	-2.07749e-010	-2.1018e-010	-2.12434e-010	-2.14725e-010	
CoarseR30	-2.15036e-010	-1.92936e-010	-1.77435e-010	-1.64792e-010	-1.54682e-010	-1.46474e-010	-1.40045e-010	-1.35618e-010	-1.33045e-010	-1.31379e-010	-1.30756e-010	-1.3078e-010	-1.31485e-010	-1.32637e-010	-1.34282e-010	-1.3629e-010	-1.38702e-010	-1.41337e-010	-1.44194e-010	-1.47391e-010	-1.50631e-010	-1.54107e-010	-1.57782e-010	-1.61766e-010	-1.66723e-010	-1.71788e-010	
CoarseR40	-1.64015e-010	-1.43331e-010	-1.2816e-010	-1.15923e-010	-1.0615e-010	-9.84306e-011	-9.33875e-011	-8.98477e-011	-8.75914e-011	-8.605e-011	-8.57083e-011	-8.58464e-011	-8.69887e-011	-8.85377e-011	-9.0661e-011	-9.3204e-011	-9.63268e-011	-9.98453e-011	-1.03699e-010	-1.08117e-010	-1.13061e-010	-1.19394e-010	-1.26098e-010	-1.32006e-010	-1.37335e-010	-1.42146e-010	
CoarseR50	-1.24432e-010	-1.04355e-010	-8.96599e-011	-7.76074e-011	-6.85229e-011	-6.19111e-011	-5.70116e-011	-5.35653e-011	-5.12631e-011	-5.01113e-011	-4.98743e-011	-5.05272e-011	-5.18616e-011	-5.41412e-011	-5.67211e-011	-6.01719e-011	-6.41961e-011	-6.88373e-011	-7.43448e-011	-8.22516e-011	-8.99238e-011	-9.69326e-011	-1.03175e-010	-1.08873e-010	-1.13882e-010	-1.18418e-010	
CoarseR60	-9.25828e-011	-7.28232e-011	-5.83113e-011	-4.70251e-011	-3.85452e-011	-3.21224e-011	-2.72466e-011	-2.37935e-011	-2.18568e-011	-2.0831e-011	-2.08947e-011	-2.17943e-011	-2.37685e-011	-2.63027e-011	-2.99702e-011	-3.42493e-011	-3.97536e-011	-4.74474e-011	-5.6355e-011	-6.43716e-011	-7.17054e-011	-7.82904e-011	-8.41801e-011	-8.95192e-011	-9.43426e-011	-9.86664e-011	
CoarseR70	-6.69244e-011	-4.73446e-011	-3.30312e-011	-2.22435e-011	-1.38941e-011	-7.27978e-012	-2.71261e-012	5.58867e-013	2.63637e-012	3.19427e-012	2.94433e-012	1.51072e-012	-8.98595e-013	-4.30005e-012	-8.80177e-012	-1.46867e-011	-2.40993e-011	-3.33082e-011	-4.16225e-011	-4.92243e-011	-5.60808e-011	-6.23708e-011	-6.79322e-011	-7.30253e-011	-7.76966e-011	-8.18845e-011	
CoarseR80	-4.55159e-011	-2.60085e-011	-1.22521e-011	-1.34961e-012	7.05512e-012	1.34962e-011	1.80556e-011	2.12272e-011	2.2868e-011	2.3355e-011	2.26633e-011	2.07887e-011	1.77932e-011	1.35573e-011	7.3292e-012	-2.64869e-012	-1.2096e-011	-2.06823e-011	-2.85371e-011	-3.57708e-011	-4.23857e-011	-4.83584e-011	-5.3815e-011	-5.86768e-011	-6.31379e-011	-6.71658e-011	
CoarseR90	-2.74893e-011	-8.26466e-012	5.43895e-012	1.62704e-011	2.47484e-011	3.11427e-011	3.56707e-011	3.86913e-011	4.01798e-011	4.03899e-011	3.94094e-011	3.71335e-011	3.33784e-011	2.75866e-011	1.74701e-011	7.75648e-012	-1.20547e-012	-9.52554e-012	-1.69839e-011	-2.39359e-011	-3.01089e-011	-3.58466e-011	-4.11241e-011	-4.58436e-011	-5.02612e-011	-5.43092e-011	
CoarseR100	-1.26065e-011	6.49312e-012	2.04331e-011	3.12821e-011	3.96517e-011	4.61166e-011	5.05693e-011	5.34046e-011	5.47962e-011	5.48901e-011	5.35451e-011	5.05826e-011	4.58496e-011	3.65935e-011	2.65251e-011	1.72081e-011	8.62885e-012	7.2557e-013	-6.43176e-012	-1.31497e-011	-1.91257e-011	-2.46948e-011	-2.98711e-011	-3.44699e-011	-3.86012e-011	-4.25671e-011	
CoarseR110	-2.31846e-013	1.91315e-011	3.30627e-011	4.41036e-011	5.24758e-011	5.88798e-011	6.32738e-011	6.59986e-011	6.74119e-011	6.72234e-011	6.55032e-011	6.19501e-011	5.45431e-011	4.44171e-011	3.476e-011	2.59158e-011	1.768e-011	1.01201e-011	3.10247e-012	-3.25536e-012	-9.14936e-012	-1.45775e-011	-1.9587e-011	-2.39988e-011	-2.82514e-011	-3.20099e-011	
CoarseR120	1.04616e-011	2.9936e-011	4.40043e-011	5.50381e-011	6.34941e-011	6.97548e-011	7.42619e-011	7.69996e-011	7.8168e-011	7.79302e-011	7.57622e-011	7.12016e-011	6.15729e-011	5.18838e-011	4.25031e-011	3.39864e-011	2.60481e-011	1.88245e-011	1.20523e-011	5.7658e-012	-7.24384e-014	-5.37278e-012	-1.0144e-011	-1.4644e-011	-1.85726e-011	-2.25091e-011	
CoarseR130	1.95065e-011	3.91719e-011	5.33032e-011	6.4437e-011	7.2974e-011	7.94004e-011	8.38125e-011	8.64858e-011	8.76887e-011	8.71057e-011	8.46804e-011	7.83511e-011	6.83584e-011	5.88615e-011	4.992e-011	4.15572e-011	3.39026e-011	2.68549e-011	2.03266e-011	1.42179e-011	8.46258e-012	3.32231e-012	-1.35836e-012	-5.92086e-012	-9.85255e-012	-1.35471e-011	
CoarseR140	2.68521e-011	4.67714e-011	6.10757e-011	7.23032e-011	8.09785e-011	8.74473e-011	9.19376e-011	9.47399e-011	9.58174e-011	9.53115e-011	9.24911e-011	8.42441e-011	7.45148e-011	6.54548e-011	5.68116e-011	4.87362e-011	4.12636e-011	3.43618e-011	2.7881e-011	2.18584e-011	1.6304e-011	1.12392e-011	6.60571e-012	2.20975e-012	-1.70041e-012	-5.50649e-012	
CoarseR150	3.32199e-011	5.32216e-011	6.77502e-011	7.90377e-011	8.77911e-011	9.44195e-011	9.90624e-011	1.01916e-010	1.03053e-010	1.02445e-010	9.91551e-011	9.0127e-011	8.0682e-011	7.16156e-011	6.32124e-011	5.54038e-011	4.81191e-011	4.12402e-011	3.50464e-011	2.90818e-011	2.3663e-011	1.86565e-011	1.38998e-011	9.63702e-012	5.62766e-012	1.94546e-012	
CoarseR160	3.83807e-011	5.86555e-011	7.32665e-011	8.47308e-011	9.3671e-011	1.00393e-010	1.05129e-010	1.08064e-010	1.09423e-010	1.08814e-010	1.04733e-010	9.53911e-011	8.62707e-011	7.76356e-011	6.93788e-011	6.16383e-011	5.45181e-011	4.77709e-011	4.15788e-011	3.57138e-011	3.03575e-011	2.53245e-011	2.08053e-011	1.65564e-011	1.26035e-011	8.85449e-012	
CoarseR170	4.26176e-011	6.31286e-011	7.77743e-011	8.956e-011	9.85203e-011	1.05441e-010	1.10393e-010	1.13441e-010	1.14846e-010	1.14368e-010	1.098e-010	1.00551e-010	9.16269e-011	8.31376e-011	7.5018e-011	6.74385e-011	6.04257e-011	5.36954e-011	4.76291e-011	4.19045e-011	3.65745e-011	3.1683e-011	2.70724e-011	2.27789e-011	1.88501e-011	1.52442e-011	
CoarseR180	4.59033e-011	6.66493e-011	8.14904e-011	9.33892e-011	1.02591e-010	1.09904e-010	1.1499e-010	1.18319e-010	1.19753e-010	1.19288e-010	1.14479e-010	1.05479e-010	9.66075e-011	8.82854e-011	8.03912e-011	7.29538e-011	6.58948e-011	5.94308e-011	5.34088e-011	4.76422e-011	4.22729e-011	3.74665e-011	3.27619e-011	2.86107e-011	2.46195e-011	2.10447e-011	
CoarseR190	4.85225e-011	6.94949e-011	8.45649e-011	9.66986e-011	1.06221e-010	1.13433e-010	1.18854e-010	1.22371e-010	1.23973e-010	1.23797e-010	1.18922e-010	1.10058e-010	1.01358e-010	9.31398e-011	8.54271e-011	7.80191e-011	7.11744e-011	6.4621e-011	5.85992e-011	5.28897e-011	4.76119e-011	4.27113e-011	3.81426e-011	3.39264e-011	2.99655e-011	2.61595e-011	
CoarseR200	5.03982e-011	7.1687e-011	8.70191e-011	9.9312e-011	1.08884e-010	1.16471e-010	1.22077e-010	1.25807e-010	1.2778e-010	1.27707e-010	1.23068e-010	1.14366e-010	1.05859e-010	9.77665e-011	9.00391e-011	8.28156e-011	7.60017e-011	6.95831e-011	6.3398e-011	5.77652e-011	5.25092e-011	4.75735e-011	4.29891e-011	3.87299e-011	3.48726e-011	3.11613e-011	
CoarseR210	5.18116e-011	7.33836e-011	8.89931e-011	1.0143e-010	1.11168e-010	1.19069e-010	1.24781e-010	1.28842e-010	1.30902e-010	1.31001e-010	1.26954e-010	1.18242e-010	1.09963e-010	1.01902e-010	9.42618e-011	8.71087e-011	8.04107e-011	7.39771e-011	6.79616e-011	6.23332e-011	5.70519e-011	5.20945e-011	4.74982e-011	4.32338e-011	3.91844e-011	3.54816e-011	
CoarseR220	5.27058e-011	7.45541e-011	9.03721e-011	1.03113e-010	1.1304e-010	1.21061e-010	1.27111e-010	1.31325e-010	1.33701e-010	1.34179e-010	1.3047e-010	1.2204e-010	1.13772e-010	1.05968e-010	9.82459e-011	9.10985e-011	8.43461e-011	7.80385e-011	7.20675e-011	6.62565e-011	6.1069e-011	5.61492e-011	5.16095e-011	4.722e-011	4.33445e-011	3.9616e-011	
CoarseR230	5.31933e-011	7.53146e-011	9.1277e-011	1.04314e-010	1.14497e-010	1.22716e-010	1.28905e-010	1.33225e-010	1.36051e-010	1.36616e-010	1.3362e-010	1.25498e-010	1.17226e-010	1.09411e-010	1.01946e-010	9.46644e-011	8.80412e-011	8.16454e-011	7.57165e-011	7.0099e-011	6.47153e-011	5.98032e-011	5.50533e-011	5.08379e-011	4.68385e-011	4.2953e-011	
CoarseR240	5.34242e-011	7.57051e-011	9.19399e-011	1.0506e-010	1.1556e-010	1.23935e-010	1.30348e-010	1.34946e-010	1.37851e-010	1.38805e-010	1.36502e-010	1.28576e-010	1.20414e-010	1.12527e-010	1.05098e-010	9.79325e-011	9.12339e-011	8.49302e-011	7.89205e-011	7.32688e-011	6.7884e-011	6.29754e-011	5.83293e-011	5.39046e-011	4.99237e-011	4.59903e-011	
CoarseR250	5.33503e-011	7.57259e-011	9.22365e-011	1.0566e-010	1.16332e-010	1.24838e-010	1.31464e-010	1.36317e-010	1.39386e-010	1.40535e-010	1.3898e-010	1.31345e-010	1.23329e-010	1.15537e-010	1.07948e-010	1.00877e-010	9.40968e-011	8.77151e-011	8.18269e-011	7.60421e-011	7.07831e-011	6.57373e-011	6.11047e-011	5.67175e-011	5.26619e-011	4.87691e-011	
MinCout:	-7.24384e-014	CoarseR:	120	CoarseC:	200

	CoarseC40	CoarseC41	CoarseC42	CoarseC43	CoarseC44	CoarseC45	CoarseC46	CoarseC47	CoarseC48	CoarseC49	CoarseC50	CoarseC51	CoarseC52	CoarseC53	CoarseC54	CoarseC55	CoarseC56	CoarseC57	CoarseC58	CoarseC59	CoarseC60	
CoarseR60	-3.77444e-011	-3.71278e-011	-3.62975e-011	-3.5592e-011	-3.49455e-011	-3.4379e-011	-3.36855e-011	-3.31305e-011	-3.2456e-011	-3.18836e-011	-3.13828e-011	-3.07616e-011	-3.01953e-011	-2.97744e-011	-2.916e-011	-2.86763e-011	-2.82947e-011	-2.78197e-011	-2.73416e-011	-2.69038e-011	-2.64632e-011	
CoarseR61	-3.51095e-011	-3.43958e-011	-3.37118e-011	-3.29279e-011	-3.23688e-011	-3.17662e-011	-3.11177e-011	-3.04249e-011	-2.99331e-011	-2.92632e-011	-2.86881e-011	-2.81759e-011	-2.76148e-011	-2.7035e-011	-2.65255e-011	-2.6107e-011	-2.5624e-011	-2.52149e-011	-2.46787e-011	-2.42634e-011	-2.38839e-011	
CoarseR62	-3.25162e-011	-3.1767e-011	-3.0986e-011	-3.02439e-011	-2.95897e-011	-2.90534e-011	-2.84091e-011	-2.77584e-011	-2.71539e-011	-2.67099e-011	-2.60542e-011	-2.54874e-011	-2.49726e-011	-2.44704e-011	-2.38483e-011	-2.34337e-011	-2.29114e-011	-2.25492e-011	-2.20789e-011	-2.16055e-011	-2.11909e-011	
CoarseR63	-2.99202e-011	-2.91725e-011	-2.85174e-011	-2.77204e-011	-2.70274e-011	-2.64332e-011	-2.58358e-011	-2.51924e-011	-2.46506e-011	-2.409e-011	-2.35e-011	-2.29953e-011	-2.24413e-011	-2.18691e-011	-2.13713e-011	-2.08986e-011	-2.04231e-011	-1.99635e-011	-1.9497e-011	-1.90892e-011	-1.866e-011	
CoarseR64	-2.74868e-011	-2.6726e-011	-2.5954e-011	-2.52828e-011	-2.45936e-011	-2.39442e-011	-2.32653e-011	-2.26689e-011	-2.20263e-011	-2.15313e-011	-2.10304e-011	-2.04247e-011	-1.98753e-011	-1.93686e-011	-1.88897e-011	-1.84054e-011	-1.7832e-011	-1.74194e-011	-1.70148e-011	-1.6549e-011	-1.60838e-011	
CoarseR65	-2.49758e-011	-2.42789e-011	-2.34531e-011	-2.27265e-011	-2.21439e-011	-2.14555e-011	-2.08236e-011	-2.01883e-011	-1.95497e-011	-1.89992e-011	-1.84408e-011	-1.79437e-011	-1.73978e-011	-1.6849e-011	-1.63585e-011	-1.59365e-011	-1.55302e-011	-1.49723e-011	-1.46188e-011	-1.41602e-011	-1.3695e-011	
CoarseR66	-2.26122e-011	-2.19193e-011	-2.11574e-011	-2.03541e-011	-1.96729e-011	-1.90501e-011	-1.84652e-011	-1.77911e-011	-1.71402e-011	-1.66527e-011	-1.61168e-011	-1.55618e-011	-1.50198e-011	-1.44342e-011	-1.39881e-011	-1.3588e-011	-1.30649e-011	-1.26742e-011	-1.21608e-011	-1.17055e-011	-1.13321e-011	
CoarseR67	-2.01094e-011	-1.94825e-011	-1.86632e-011	-1.79447e-011	-1.73102e-011	-1.66298e-011	-1.6049e-011	-1.53622e-011	-1.47935e-011	-1.41887e-011	-1.36569e-011	-1.31674e-011	-1.26887e-011	-1.21317e-011	-1.1544e-011	-1.12066e-011	-1.07485e-011	-1.02416e-011	-9.85153e-012	-9.44117e-012	-8.9864e-012	
CoarseR68	-1.77736e-011	-1.709e-011	-1.63969e-011	-1.5622e-011	-1.499e-011	-1.42531e-011	-1.36333e-011	-1.29933e-011	-1.24285e-011	-1.19911e-011	-1.13606e-011	-1.07535e-011	-1.02357e-011	-9.74387e-012	-9.30619e-012	-8.81079e-012	-8.45882e-012	-7.91144e-012	-7.46339e-012	-7.05946e-012	-6.7105e-012	
CoarseR69	-1.5569e-011	-1.47867e-011	-1.40979e-011	-1.33862e-011	-1.27163e-011	-1.20679e-011	-1.14104e-011	-1.07312e-011	-1.00919e-011	-9.55572e-012	-9.03182e-012	-8.48824e-012	-7.95987e-012	-7.42853e-012	-6.95128e-012	-6.51861e-012	-6.04941e-012	-5.6113e-012	-5.12346e-012	-4.72317e-012	-4.3342e-012	
CoarseR70	-1.32278e-011	-1.2468e-011	-1.17228e-011	-1.10167e-011	-1.03515e-011	-9.76756e-012	-9.09548e-012	-8.48008e-012	-7.90617e-012	-7.33041e-012	-6.68912e-012	-6.1675e-012	-5.64258e-012	-5.11321e-012	-4.58237e-012	-4.13553e-012	-3.8087e-012	-3.35637e-012	-2.81297e-012	-2.41639e-012	-2.03116e-012	
CoarseR71	-1.10562e-011	-1.03005e-011	-9.55944e-012	-8.81463e-012	-8.23803e-012	-7.57298e-012	-6.86163e-012	-6.31189e-012	-5.72309e-012	-5.19393e-012	-4.57444e-012	-3.97824e-012	-3.45604e-012	-2.97538e-012	-2.46407e-012	-1.85778e-012	-1.53449e-012	-1.10183e-012	-7.7114e-013	-1.68612e-013	1.67898e-013	
CoarseR72	-8.82912e-012	-8.11867e-012	-7.38199e-012	-6.64151e-012	-6.02661e-012	-5.36537e-012	-4.74354e-012	-4.13672e-012	-3.52708e-012	-3.00146e-012	-2.38552e-012	-1.87106e-012	-1.33565e-012	-8.1514e-013	-2.73827e-013	1.04384e-013	6.48664e-013	1.09355e-012	1.50889e-012	1.9596e-012	2.33595e-012	
CoarseR73	-6.58874e-012	-5.94375e-012	-5.14966e-012	-4.41332e-012	-3.80149e-012	-3.14426e-012	-2.54495e-012	-1.94206e-012	-1.31844e-012	-6.91878e-013	-1.2303e-013	3.61095e-013	8.75334e-013	1.45231e-012	1.91261e-012	2.45209e-012	2.88951e-012	3.31318e-012	3.8461e-012	4.18823e-012	4.51704e-012	
CoarseR74	-4.4403e-012	-3.79927e-012	-3.07067e-012	-2.36191e-012	-1.6685e-012	-1.07617e-012	-4.01075e-013	2.40736e-013	7.99667e-013	1.36153e-012	1.92665e-012	2.45115e-012	3.02154e-012	3.4911e-012	4.0078e-012	4.52735e-012	5.02175e-012	5.45941e-012	5.91127e-012	6.35368e-012	6.79996e-012	
CoarseR75	-2.33955e-012	-1.57955e-012	-8.55311e-013	-1.8831e-013	4.77168e-013	1.08429e-012	1.6758e-012	2.33174e-012	2.9299e-012	3.38333e-012	4.04941e-012	4.55196e-012	5.07596e-012	5.64603e-012	6.09893e-012	6.63156e-012	7.12121e-012	7.5392e-012	8.01973e-012	8.39829e-012	8.82542e-012	
CoarseR76	-3.32535e-013	4.04623e-013	1.24862e-012	1.86863e-012	2.51217e-012	3.17661e-012	3.86904e-012	4.39861e-012	5.05414e-012	5.62703e-012	6.07929e-012	6.63991e-012	7.14247e-012	7.66562e-012	8.27877e-012	8.70314e-012	9.13017e-012	9.6035e-012	1.01257e-011	1.03946e-011	1.08181e-011	
CoarseR77	1.77158e-012	2.42009e-012	3.19877e-012	3.98061e-012	4.62017e-012	5.17588e-012	5.86476e-012	6.55622e-012	7.10381e-012	7.61162e-012	8.1652e-012	8.61663e-012	9.23755e-012	9.6959e-012	1.03067e-011	1.0787e-011	1.12105e-011	1.15587e-011	1.20771e-011	1.2509e-011	1.29274e-011	
CoarseR78	3.75917e-012	4.44654e-012	5.22113e-012	5.99902e-012	6.6541e-012	7.24855e-012	7.82853e-012	8.45504e-012	9.10364e-012	9.56389e-012	1.02184e-011	1.07104e-011	1.12055e-011	1.17037e-011	1.23273e-011	1.27883e-011	1.32067e-011	1.35685e-011	1.40379e-011	1.44515e-011	1.48828e-011	
CoarseR79	5.69425e-012	6.3777e-012	7.14816e-012	7.92205e-012	8.51116e-012	9.14613e-012	9.88848e-012	1.0406e-011	1.09451e-011	1.1551e-011	1.20362e-011	1.26459e-011	1.31821e-011	1.36499e-011	1.41927e-011	1.4605e-011	1.50218e-011	1.5546e-011	1.59507e-011	1.64195e-011	1.67256e-011	
CoarseR80	7.72551e-012	8.34425e-012	9.11067e-012	9.77511e-012	1.04661e-011	1.11152e-011	1.175e-011	1.2369e-011	1.29041e-011	1.34446e-011	1.40477e-011	1.44899e-011	1.51267e-011	1.55292e-011	1.60848e-011	1.65389e-011	1.68909e-011	1.73049e-011	1.78743e-011	1.82498e-011	1.86859e-011	
MinCout:	1.04384e-013	CoarseR:	72	CoarseC:	55

	FineC0	FineC10	FineC20	FineC30	FineC40	FineC50	FineC60	FineC70	FineC80	FineC90	FineC100	FineC110	FineC120	FineC130	FineC140	FineC150	FineC160	FineC170	FineC180	FineC190	FineC200	FineC210	FineC220	FineC230	FineC240	FineC250	
FineR0	-6.96449e-011	-5.63759e-011	-4.84475e-011	-4.33848e-011	-3.94758e-011	-3.6529e-011	-3.43076e-011	-3.24435e-011	-3.09639e-011	-2.97484e-011	-2.8782e-011	-2.77784e-011	-2.70645e-011	-2.64373e-011	-2.58971e-011	-2.54413e-011	-2.49704e-011	-2.4588e-011	-2.42192e-011	-2.39424e-011	-2.37499e-011	-2.34132e-011	-2.3266e-011	-2.30334e-011	-2.28269e-011	-2.26666e-011	
FineR10	-5.55099e-011	-4.22912e-011	-3.46889e-011	-2.95528e-011	-2.56738e-011	-2.27499e-011	-2.05875e-011	-1.87967e-011	-1.72641e-011	-1.59742e-011	-1.49101e-011	-1.40127e-011	-1.33016e-011	-1.26754e-011	-1.21347e-011	-1.1679e-011	-1.13097e-011	-1.09407e-011	-1.06161e-011	-1.03345e-011	-1.01405e-011	-9.8431e-012	-9.64969e-012	-9.50141e-012	-9.29168e-012	-9.26389e-012	
FineR20	-5.04943e-011	-3.71582e-011	-2.96675e-011	-2.43949e-011	-2.07153e-011	-1.77231e-011	-1.54072e-011	-1.36045e-011	-1.21386e-011	-1.10186e-011	-9.91395e-012	-9.06144e-012	-8.35244e-012	-7.62348e-012	-7.12586e-012	-6.62822e-012	-6.25938e-012	-5.89053e-012	-5.60908e-012	-5.32697e-012	-5.0884e-012	-4.89422e-012	-4.69983e-012	-4.54941e-012	-4.35525e-012	-4.24968e-012	
FineR30	-4.78797e-011	-3.44754e-011	-2.71406e-011	-2.17827e-011	-1.80357e-011	-1.51727e-011	-1.28642e-011	-1.09633e-011	-9.5624e-012	-8.29977e-012	-7.38703e-012	-6.55449e-012	-5.78601e-012	-5.10035e-012	-4.60366e-012	-4.10607e-012	-3.58976e-012	-3.32512e-012	-2.93835e-012	-2.65599e-012	-2.52236e-012	-2.22252e-012	-2.02758e-012	-1.87729e-012	-1.7268e-012	-1.62063e-012	
FineR40	-4.62923e-011	-3.29056e-011	-2.55509e-011	-2.03404e-011	-1.65014e-011	-1.36027e-011	-1.12964e-011	-9.45992e-012	-7.93933e-012	-6.72063e-012	-5.72432e-012	-4.89277e-012	-4.18571e-012	-3.54437e-012	-3.04817e-012	-2.48963e-012	-2.07778e-012	-1.75263e-012	-1.36596e-012	-1.1275e-012	-9.05667e-013	-6.05606e-013	-4.55133e-013	-3.04043e-013	-1.53192e-013	5.89838e-014	
FineR50	-4.52998e-011	-3.19616e-011	-2.45785e-011	-1.93138e-011	-1.54168e-011	-1.25647e-011	-1.0283e-011	-8.38647e-012	-6.92916e-012	-5.71206e-012	-4.71703e-012	-3.88647e-012	-3.11899e-012	-2.49564e-012	-1.89552e-012	-1.48528e-012	-1.07365e-012	-7.48577e-013	-3.61776e-013	-7.95615e-014	2.03495e-013	3.98576e-013	5.49629e-013	7.44946e-013	8.96083e-013	1.04741e-012	
FineR60	-4.46451e-011	-3.13408e-011	-2.38363e-011	-1.85775e-011	-1.47461e-011	-1.17957e-011	-9.59848e-012	-7.72412e-012	-6.20578e-012	-4.92858e-012	-3.93443e-012	-3.10454e-012	-2.39873e-012	-1.77577e-012	-1.21929e-012	-7.65525e-013	-3.54014e-013	1.47289e-014	4.0165e-013	6.40087e-013	8.79026e-013	1.1184e-012	1.33043e-012	1.48179e-012	1.63308e-012	1.74e-012	
FineR70	-4.41841e-011	-3.07629e-011	-2.32646e-011	-1.81712e-011	-1.41406e-011	-1.12934e-011	-9.05762e-012	-7.16396e-012	-5.68938e-012	-4.4324e-012	-3.43883e-012	-2.60907e-012	-1.8857e-012	-1.26322e-012	-6.20285e-013	-1.05582e-013	3.0593e-013	5.8718e-013	9.13092e-013	1.19557e-012	1.43449e-012	1.62973e-012	1.78094e-012	1.99323e-012	2.1446e-012	2.29617e-012	
FineR80	-4.38663e-011	-3.04147e-011	-2.29212e-011	-1.76909e-011	-1.38033e-011	-1.08548e-011	-8.62025e-012	-6.8311e-012	-5.29607e-012	-4.03921e-012	-2.9852e-012	-2.15633e-012	-1.39026e-012	-8.2901e-013	-2.29525e-013	2.2408e-013	6.52717e-013	1.02128e-012	1.34722e-012	1.5419e-012	1.82491e-012	2.01978e-012	2.21539e-012	2.42782e-012	2.57933e-012	2.68647e-012	
FineR90	-4.35459e-011	-3.00728e-011	-2.25427e-011	-1.73518e-011	-1.35077e-011	-1.05197e-011	-8.32837e-012	-6.43709e-012	-4.92233e-012	-3.70771e-012	-2.65415e-012	-1.82564e-012	-1.1209e-012	-4.55585e-013	1.00541e-013	5.54038e-013	9.21626e-013	1.35128e-012	1.67705e-012	1.91547e-012	2.15476e-012	2.45508e-012	2.54533e-012	2.69689e-012	2.84847e-012	3.0168e-012	
FineR100	-4.32959e-011	-2.98537e-011	-2.23666e-011	-1.71163e-011	-1.32333e-011	-1.029e-011	-8.0982e-012	-6.16683e-012	-4.69401e-012	-3.54185e-012	-2.48819e-012	-1.59891e-012	-8.33359e-013	-2.11541e-013	2.65399e-013	7.79779e-013	1.19097e-012	1.57678e-012	1.84149e-012	2.14099e-012	2.42388e-012	2.68041e-012	2.87564e-012	2.96614e-012	3.17891e-012	3.28677e-012	
FineR110	-4.3119e-011	-2.97419e-011	-2.21542e-011	-1.6906e-011	-1.30029e-011	-1.0059e-011	-7.86834e-012	-6.04125e-012	-4.52713e-012	-3.31423e-012	-2.2614e-012	-1.39057e-012	-6.25047e-013	-3.24606e-015	5.34848e-013	1.00567e-012	1.41675e-012	1.78519e-012	2.06709e-012	2.34953e-012	2.60566e-012	2.78382e-012	2.97957e-012	3.1922e-012	3.34391e-012	3.45125e-012	
FineR120	-4.29667e-011	-2.95293e-011	-2.20817e-011	-1.67364e-011	-1.28941e-011	-9.8913e-012	-7.65947e-012	-5.89403e-012	-4.31863e-012	-3.10581e-012	-2.09543e-012	-1.22495e-012	-5.20814e-013	1.61902e-013	6.99821e-013	1.15306e-012	1.62524e-012	1.90634e-012	2.23209e-012	2.47043e-012	2.75342e-012	2.94886e-012	3.1441e-012	3.35675e-012	3.50848e-012	3.59939e-012	
FineR130	-4.28559e-011	-2.93914e-011	-2.19116e-011	-1.66666e-011	-1.27875e-011	-9.84707e-012	-7.55402e-012	-5.76891e-012	-4.21384e-012	-3.00124e-012	-1.99102e-012	-1.12068e-012	-3.55502e-013	3.27153e-013	8.64958e-013	1.31815e-012	1.6855e-012	2.07147e-012	2.39713e-012	2.67956e-012	2.91845e-012	3.17503e-012	3.37028e-012	3.46085e-012	3.61262e-012	3.82568e-012	
FineR140	-4.27809e-011	-2.93443e-011	-2.1803e-011	-1.65601e-011	-1.26197e-011	-9.74113e-012	-7.44894e-012	-5.66383e-012	-4.10905e-012	-2.8355e-012	-1.88668e-012	-9.55251e-013	-2.51317e-013	3.7014e-013	9.07972e-013	1.37866e-012	1.78959e-012	2.21906e-012	2.50081e-012	2.73958e-012	2.97838e-012	3.26182e-012	3.47436e-012	3.62607e-012	3.71685e-012	3.82429e-012	
FineR150	-4.27344e-011	-2.92746e-011	-2.17581e-011	-1.64535e-011	-1.25138e-011	-9.69744e-012	-7.4469e-012	-5.55903e-012	-4.04698e-012	-2.7731e-012	-1.78235e-012	-8.51014e-013	-1.47144e-013	4.74265e-013	1.01207e-012	1.48274e-012	1.89366e-012	2.262e-012	2.60532e-012	2.84368e-012	3.0825e-012	3.27794e-012	3.5175e-012	3.73026e-012	3.82107e-012	3.92855e-012	
FineR160	-4.26237e-011	-2.92681e-011	-2.16544e-011	-1.63875e-011	-1.25109e-011	-9.6738e-012	-7.34221e-012	-5.55779e-012	-3.94239e-012	-2.77248e-012	-1.73927e-012	-8.50835e-013	-1.04145e-013	5.17247e-013	1.02954e-012	1.52573e-012	1.93665e-012	2.32266e-012	2.60437e-012	2.94785e-012	3.12557e-012	3.32103e-012	3.51684e-012	3.72959e-012	3.81976e-012	4.03286e-012	
FineR170	-4.26792e-011	-2.92225e-011	-2.16242e-011	-1.64054e-011	-1.24669e-011	-9.52862e-012	-7.29875e-012	-5.45329e-012	-3.89918e-012	-2.72936e-012	-1.78128e-012	-8.50512e-013	-4.2974e-014	5.78278e-013	1.1159e-012	1.5687e-012	1.93624e-012	2.42671e-012	2.70851e-012	2.99089e-012	3.186e-012	3.42523e-012	3.6821e-012	3.77272e-012	3.88018e-012	4.09319e-012	
FineR180	-4.2608e-011	-2.91544e-011	-2.1642e-011	-1.64017e-011	-1.24641e-011	-9.52643e-012	-7.2971e-012	-5.45205e-012	-3.89831e-012	-2.66758e-012	-1.61612e-012	-8.07682e-013	-4.29629e-014	6.21234e-013	1.17662e-012	1.62951e-012	2.04035e-012	2.36518e-012	2.70799e-012	2.99032e-012	3.22913e-012	3.42459e-012	3.57607e-012	3.83315e-012	3.98437e-012	4.07533e-012	
FineR190	-4.26259e-011	-2.9177e-011	-2.1637e-011	-1.63366e-011	-1.24619e-011	-9.48331e-012	-7.23424e-012	-5.45082e-012	-3.89762e-012	-2.64376e-012	-1.57316e-012	-7.64695e-013	6.11616e-014	6.82256e-013	1.17642e-012	1.62918e-012	2.10108e-012	2.36478e-012	2.73389e-012	2.98983e-012	3.27268e-012	3.52933e-012	3.7246e-012	3.81523e-012	4.02821e-012	4.13573e-012	
FineR200	-4.26191e-011	-2.91089e-011	-2.15972e-011	-1.63574e-011	-1.23978e-011	-9.5843e-012	-7.23296e-012	-5.36671e-012	-3.83556e-012	-2.58199e-012	-1.63404e-012	-7.46176e-013	0	6.64168e-013	1.15844e-012	1.61108e-012	2.03959e-012	2.46887e-012	2.75052e-012	3.0769e-012	3.27215e-012	3.5282e-012	3.724e-012	3.87566e-012	4.02757e-012	4.07397e-012	
FineR210	-4.26171e-011	-2.92288e-011	-2.15309e-011	-1.63545e-011	-1.24575e-011	-9.5412e-012	-7.29289e-012	-5.36577e-012	-3.79261e-012	-2.58153e-012	-1.57251e-012	-7.0324e-013	4.29436e-014	6.64051e-013	1.21935e-012	1.67217e-012	2.08295e-012	2.45117e-012	2.79402e-012	3.01535e-012	3.27162e-012	3.51076e-012	3.66229e-012	3.87504e-012	4.02687e-012	4.07333e-012	
FineR220	-4.26063e-011	-2.92239e-011	-2.15898e-011	-1.63517e-011	-1.24158e-011	-9.49977e-012	-7.25113e-012	-5.36483e-012	-3.85379e-012	-2.58108e-012	-1.52986e-012	-7.6441e-013	4.29354e-014	6.63933e-013	1.20141e-012	1.67189e-012	2.0826e-012	2.46839e-012	2.79356e-012	3.03233e-012	3.31524e-012	3.46652e-012	3.70602e-012	3.8577e-012	4.00965e-012	4.17823e-012	
FineR230	-4.2637e-011	-2.91217e-011	-2.15885e-011	-1.63112e-011	-1.23748e-011	-9.53953e-012	-7.20937e-012	-5.36483e-012	-3.85311e-012	-2.64225e-012	-1.59076e-012	-7.03115e-013	8.58709e-014	6.63816e-013	1.2623e-012	1.71515e-012	2.12594e-012	2.40692e-012	2.83706e-012	2.97079e-012	3.3147e-012	3.51019e-012	3.72274e-012	3.9182e-012	4.00901e-012	4.22208e-012	
FineR240	-4.26302e-011	-2.918e-011	-2.16474e-011	-1.63112e-011	-1.24136e-011	-9.49811e-012	-7.20811e-012	-5.42509e-012	-3.81085e-012	-2.64179e-012	-1.59083e-012	-7.21491e-013	4.29273e-014	6.63816e-013	1.15784e-012	1.71486e-012	2.08224e-012	2.45034e-012	2.73206e-012	3.01434e-012	3.31416e-012	3.50962e-012	3.70543e-012	3.87382e-012	4.00901e-012	4.11654e-012	
FineR250	-4.25926e-011	-2.918e-011	-2.16076e-011	-1.63084e-011	-1.24734e-011	-9.55819e-012	-7.31017e-012	-5.44453e-012	-3.87155e-012	-2.66063e-012	-1.59055e-012	-7.82572e-013	-1.82389e-014	6.63698e-013	1.20099e-012	1.65377e-012	2.08189e-012	2.38887e-012	2.77554e-012	3.11893e-012	3.31416e-012	3.55329e-012	3.70483e-012	3.79543e-012	4.00837e-012	4.11589e-012	
MinCout:	0	FineR:	200	FineC:	120

	FineC110	FineC111	FineC112	FineC113	FineC114	FineC115	FineC116	FineC117	FineC118	FineC119	FineC120	FineC121	FineC122	FineC123	FineC124	FineC125	FineC126	FineC127	FineC128	FineC129	FineC130	
FineR190	-8.07514e-013	-7.22021e-013	-6.36588e-013	-5.32658e-013	-4.89904e-013	-3.61422e-013	-3.18592e-013	-2.14566e-013	-1.28797e-013	-8.58872e-014	0	4.29629e-014	1.28947e-013	1.71973e-013	2.76174e-013	3.1924e-013	3.4419e-013	4.91578e-013	4.91684e-013	5.7792e-013	6.21095e-013	
FineR191	-7.64695e-013	-7.22021e-013	-5.75391e-013	-5.93851e-013	-4.89904e-013	-4.04244e-013	-3.18592e-013	-2.14566e-013	-1.89969e-013	-4.29436e-014	0	-1.82017e-014	8.59481e-014	1.71941e-013	2.15022e-013	3.62256e-013	4.05355e-013	4.91578e-013	5.34738e-013	5.7792e-013	6.21125e-013	
FineR192	-7.64695e-013	-7.22021e-013	-6.79325e-013	-4.89798e-013	-4.47032e-013	-4.04244e-013	-3.18592e-013	-2.14566e-013	-1.28773e-013	-4.29436e-014	-6.11698e-014	4.29629e-014	8.59481e-014	1.71941e-013	2.14981e-013	3.62256e-013	3.4419e-013	4.48458e-013	5.34738e-013	5.7792e-013	6.82256e-013	
FineR193	-7.46215e-013	-6.60822e-013	-6.18131e-013	-4.89798e-013	-4.47032e-013	-4.04244e-013	-3.18592e-013	-1.71653e-013	-2.32863e-013	-1.04116e-013	-6.11698e-014	4.29629e-014	1.28947e-013	1.9011e-013	3.19178e-013	3.01088e-013	4.05339e-013	4.48458e-013	5.34738e-013	5.7792e-013	6.82256e-013	
FineR194	-7.46176e-013	-6.60822e-013	-6.18131e-013	-4.89798e-013	-4.47032e-013	-3.61361e-013	-3.61434e-013	-2.32827e-013	-1.28773e-013	-8.58709e-014	0	4.29629e-014	1.28922e-013	2.33095e-013	3.19178e-013	3.62256e-013	4.05339e-013	4.48458e-013	5.34738e-013	5.7792e-013	6.21095e-013	
FineR195	-7.0349e-013	-6.60822e-013	-5.7529e-013	-4.89798e-013	-4.47032e-013	-4.04244e-013	-2.57364e-013	-1.71653e-013	-1.28773e-013	-1.47037e-013	4.29518e-014	8.59258e-014	1.90081e-013	2.76124e-013	2.58009e-013	3.62243e-013	4.05339e-013	4.48458e-013	5.34738e-013	6.39057e-013	6.21095e-013	
FineR196	-7.0349e-013	-6.60822e-013	-6.18131e-013	-4.89798e-013	-3.85845e-013	-3.61409e-013	-2.1451e-013	-1.71653e-013	-1.28773e-013	-1.47037e-013	0	8.59258e-014	1.28922e-013	1.71941e-013	3.19178e-013	3.01088e-013	4.05339e-013	4.48458e-013	5.34738e-013	5.77893e-013	6.21095e-013	
FineR197	-8.07378e-013	-6.60822e-013	-5.7529e-013	-5.32566e-013	-4.47032e-013	-3.61361e-013	-3.1854e-013	-1.71653e-013	-1.89941e-013	-1.47037e-013	0	8.59258e-014	1.28922e-013	2.33095e-013	2.7613e-013	3.01088e-013	4.05339e-013	4.48458e-013	5.34738e-013	5.77792e-013	6.21095e-013	
FineR198	-8.07378e-013	-6.60822e-013	-5.7529e-013	-5.32566e-013	-4.47032e-013	-3.43062e-013	-2.75683e-013	-2.32824e-013	-1.89941e-013	-1.47037e-013	4.29518e-014	8.59258e-014	1.28922e-013	2.33095e-013	2.58009e-013	3.01088e-013	4.05339e-013	4.48458e-013	5.34738e-013	6.38953e-013	6.64168e-013	
FineR199	-7.46176e-013	-6.60822e-013	-5.7529e-013	-5.32566e-013	-4.47032e-013	-3.0018e-013	-3.1854e-013	-1.71653e-013	-1.89941e-013	-8.5865e-014	0	8.59258e-014	1.28922e-013	1.71941e-013	2.7613e-013	2.58027e-013	4.05339e-013	4.48458e-013	5.34645e-013	5.77792e-013	6.20985e-013	
FineR200	-7.46176e-013	-6.79169e-013	-5.7529e-013	-5.32566e-013	-3.85845e-013	-3.61349e-013	-2.57364e-013	-1.7162e-013	-1.28748e-013	-1.04105e-013	0	4.29547e-014	1.28922e-013	2.33095e-013	2.7613e-013	3.01031e-013	4.05271e-013	4.91493e-013	5.34645e-013	6.38953e-013	6.20985e-013	
FineR201	-7.46176e-013	-6.60705e-013	-5.7529e-013	-5.32566e-013	-3.42973e-013	-3.61349e-013	-2.57364e-013	-2.7569e-013	-1.4702e-013	-4.29325e-014	0	8.59258e-014	1.28922e-013	2.33095e-013	2.5796e-013	3.01031e-013	4.48363e-013	4.91493e-013	5.34645e-013	6.38953e-013	6.20985e-013	
FineR202	-7.03365e-013	-6.60705e-013	-5.7529e-013	-5.32566e-013	-4.46956e-013	-3.0018e-013	-2.57364e-013	-2.32824e-013	-8.58428e-014	-4.29325e-014	0	4.29547e-014	1.28898e-013	2.7608e-013	2.5796e-013	3.62183e-013	4.48363e-013	4.91493e-013	5.34645e-013	6.38953e-013	6.20985e-013	
FineR203	-7.03365e-013	-7.21901e-013	-6.18022e-013	-4.89713e-013	-4.46956e-013	-3.61349e-013	-3.18531e-013	-2.7569e-013	-1.89914e-013	-4.29325e-014	0	4.29547e-014	1.90081e-013	2.33095e-013	2.76124e-013	4.05256e-013	4.48363e-013	4.91493e-013	5.34645e-013	6.20955e-013	6.20985e-013	
FineR204	-7.03365e-013	-6.60705e-013	-5.7529e-013	-4.89713e-013	-3.85772e-013	-3.42997e-013	-3.1854e-013	-2.32788e-013	-1.4702e-013	-4.29325e-014	0	4.29547e-014	1.90081e-013	1.71929e-013	2.5796e-013	3.62183e-013	4.48363e-013	4.91493e-013	5.95784e-013	5.77792e-013	6.20985e-013	
FineR205	-7.03365e-013	-6.60705e-013	-5.7529e-013	-4.89692e-013	-4.04145e-013	-3.61349e-013	-3.18531e-013	-2.1451e-013	-8.58428e-014	-4.29325e-014	6.11669e-014	8.59199e-014	1.28913e-013	1.71929e-013	2.5796e-013	3.62183e-013	4.48363e-013	4.91493e-013	5.95784e-013	5.77792e-013	7.25308e-013	
FineR206	-7.64538e-013	-7.21876e-013	-5.7529e-013	-4.28524e-013	-4.04145e-013	-3.61349e-013	-3.18531e-013	-2.32788e-013	-8.58428e-014	-4.29325e-014	0	1.04116e-013	2.33055e-013	2.14911e-013	2.5796e-013	3.62183e-013	4.48363e-013	4.91493e-013	5.95784e-013	5.77792e-013	7.25308e-013	
FineR207	-7.64538e-013	-6.60705e-013	-5.7529e-013	-4.89692e-013	-4.04145e-013	-3.61349e-013	-3.18531e-013	-2.32788e-013	-8.58428e-014	-6.11832e-014	0	8.59258e-014	1.28913e-013	1.71929e-013	2.5796e-013	3.62183e-013	4.48363e-013	5.52637e-013	5.95784e-013	5.77792e-013	6.82122e-013	
FineR208	-7.03365e-013	-6.60705e-013	-5.14095e-013	-4.89713e-013	-4.6534e-013	-3.61349e-013	-3.18531e-013	-2.7569e-013	-8.58428e-014	-4.29325e-014	0	4.29547e-014	1.71884e-013	2.14911e-013	2.5796e-013	3.01031e-013	4.05271e-013	4.30319e-013	5.34645e-013	5.77792e-013	6.20985e-013	
FineR209	-7.03365e-013	-6.60705e-013	-5.7529e-013	-4.89713e-013	-5.08129e-013	-3.61349e-013	-2.7564e-013	-2.32788e-013	-1.89914e-013	-1.04105e-013	0	8.59095e-014	8.59317e-014	1.71896e-013	2.5796e-013	3.01031e-013	3.44124e-013	4.48381e-013	5.34645e-013	5.77792e-013	6.20985e-013	
FineR210	-7.64567e-013	-6.60705e-013	-6.3638e-013	-5.32473e-013	-5.08129e-013	-4.65347e-013	-3.36824e-013	-2.32788e-013	-1.89914e-013	-1.47018e-013	0	4.29547e-014	1.28898e-013	1.53749e-013	2.5796e-013	3.01031e-013	3.44124e-013	4.48381e-013	5.34645e-013	5.77792e-013	6.20985e-013	
MinCout:	0	FineR:	190	FineC:	120

