	CoarseC0	CoarseC10	CoarseC20	CoarseC30	CoarseC40	CoarseC50	CoarseC60	CoarseC70	CoarseC80	CoarseC90	CoarseC100	CoarseC110	CoarseC120	CoarseC130	CoarseC140	CoarseC150	CoarseC160	CoarseC170	CoarseC180	CoarseC190	CoarseC200	CoarseC210	CoarseC220	CoarseC230	CoarseC240	CoarseC250	
CoarseR0	-5.05506e-010	-4.77e-010	-4.57541e-010	-4.42175e-010	-4.30209e-010	-4.20777e-010	-4.13871e-010	-4.08394e-010	-4.04327e-010	-4.01073e-010	-3.98585e-010	-3.96762e-010	-3.95492e-010	-3.9463e-010	-3.94062e-010	-3.9377e-010	-3.93692e-010	-3.94278e-010	-3.955e-010	-3.9685e-010	-3.98276e-010	-3.99335e-010	-4.00319e-010	-4.0107e-010	-4.01765e-010	-4.02041e-010	
CoarseR10	-3.84338e-010	-3.58789e-010	-3.41029e-010	-3.27291e-010	-3.16703e-010	-3.08416e-010	-3.01721e-010	-2.96587e-010	-2.92656e-010	-2.8974e-010	-2.87538e-010	-2.86176e-010	-2.8545e-010	-2.86204e-010	-2.87446e-010	-2.8892e-010	-2.90632e-010	-2.92474e-010	-2.94301e-010	-2.96152e-010	-2.97905e-010	-2.99655e-010	-3.01211e-010	-3.02696e-010	-3.04018e-010	-3.05089e-010	
CoarseR20	-2.98551e-010	-2.75158e-010	-2.58976e-010	-2.46385e-010	-2.36299e-010	-2.28429e-010	-2.22122e-010	-2.17338e-010	-2.13763e-010	-2.11484e-010	-2.1082e-010	-2.11074e-010	-2.11794e-010	-2.12965e-010	-2.14459e-010	-2.16262e-010	-2.18324e-010	-2.20561e-010	-2.22899e-010	-2.25266e-010	-2.27705e-010	-2.302e-010	-2.32662e-010	-2.34887e-010	-2.37221e-010	-2.39336e-010	
CoarseR30	-2.33096e-010	-2.11336e-010	-1.96224e-010	-1.84186e-010	-1.74631e-010	-1.67045e-010	-1.61119e-010	-1.5709e-010	-1.55131e-010	-1.53991e-010	-1.53734e-010	-1.54162e-010	-1.55014e-010	-1.56575e-010	-1.58434e-010	-1.60675e-010	-1.63276e-010	-1.66103e-010	-1.69148e-010	-1.72287e-010	-1.75586e-010	-1.79051e-010	-1.82632e-010	-1.86496e-010	-1.90996e-010	-1.95717e-010	
CoarseR40	-1.82055e-010	-1.61632e-010	-1.47023e-010	-1.35472e-010	-1.26182e-010	-1.19136e-010	-1.14498e-010	-1.11482e-010	-1.09578e-010	-1.08652e-010	-1.0849e-010	-1.09127e-010	-1.10397e-010	-1.12181e-010	-1.14549e-010	-1.17398e-010	-1.20624e-010	-1.24177e-010	-1.2814e-010	-1.32387e-010	-1.37143e-010	-1.42754e-010	-1.49164e-010	-1.54906e-010	-1.60071e-010	-1.64634e-010	
CoarseR50	-1.41317e-010	-1.21675e-010	-1.07533e-010	-9.6134e-011	-8.76436e-011	-8.17337e-011	-7.73433e-011	-7.44197e-011	-7.24666e-011	-7.17475e-011	-7.18746e-011	-7.28325e-011	-7.45017e-011	-7.68263e-011	-7.96912e-011	-8.31441e-011	-8.72197e-011	-9.17688e-011	-9.72148e-011	-1.04034e-010	-1.11722e-010	-1.18504e-010	-1.24748e-010	-1.3017e-010	-1.3508e-010	-1.39473e-010	
CoarseR60	-1.08763e-010	-8.94403e-011	-7.54756e-011	-6.48972e-011	-5.71993e-011	-5.1258e-011	-4.68145e-011	-4.39386e-011	-4.23316e-011	-4.1799e-011	-4.21281e-011	-4.33092e-011	-4.55274e-011	-4.8356e-011	-5.18583e-011	-5.62234e-011	-6.14799e-011	-6.82982e-011	-7.7015e-011	-8.50656e-011	-9.22596e-011	-9.85987e-011	-1.04509e-010	-1.09733e-010	-1.14445e-010	-1.18651e-010	
CoarseR70	-8.2166e-011	-6.29992e-011	-4.98095e-011	-3.9601e-011	-3.18331e-011	-2.59973e-011	-2.16605e-011	-1.8811e-011	-1.73267e-011	-1.69168e-011	-1.75871e-011	-1.92558e-011	-2.18124e-011	-2.52477e-011	-2.97421e-011	-3.53942e-011	-4.36086e-011	-5.28668e-011	-6.12523e-011	-6.8842e-011	-7.56664e-011	-8.18479e-011	-8.74309e-011	-9.2382e-011	-9.69911e-011	-1.00998e-010	
CoarseR80	-6.00694e-011	-4.12378e-011	-2.83084e-011	-1.81262e-011	-1.03478e-011	-4.41939e-012	-2.62522e-013	2.46091e-012	3.78216e-012	3.94886e-012	2.94817e-012	1.03303e-012	-2.09589e-012	-6.30484e-012	-1.20973e-011	-2.11519e-011	-3.06422e-011	-3.93868e-011	-4.72504e-011	-5.45054e-011	-6.09119e-011	-6.69341e-011	-7.23011e-011	-7.71936e-011	-8.15291e-011	-8.55952e-011	
CoarseR90	-4.18082e-011	-2.32844e-011	-1.02663e-011	-2.94974e-014	7.80348e-012	1.36454e-011	1.77878e-011	2.04065e-011	2.15056e-011	2.15806e-011	2.03656e-011	1.78894e-011	1.40661e-011	8.85088e-012	-2.84638e-013	-1.00807e-011	-1.91708e-011	-2.75468e-011	-3.50177e-011	-4.20051e-011	-4.8213e-011	-5.39119e-011	-5.91528e-011	-6.38867e-011	-6.82175e-011	-7.21068e-011	
CoarseR100	-2.64204e-011	-7.95637e-012	5.2275e-012	1.54933e-011	2.31727e-011	2.9124e-011	3.32281e-011	3.57602e-011	3.68827e-011	3.6652e-011	3.50912e-011	3.21851e-011	2.75753e-011	1.96092e-011	9.35394e-012	-8.41197e-014	-8.73859e-012	-1.66446e-011	-2.39316e-011	-3.06053e-011	-3.68061e-011	-4.22682e-011	-4.72926e-011	-5.19124e-011	-5.60593e-011	-5.99186e-011	
CoarseR110	-1.36165e-011	5.10427e-012	1.82743e-011	2.86795e-011	3.65317e-011	4.24247e-011	4.66394e-011	4.89694e-011	4.99815e-011	4.95701e-011	4.77383e-011	4.43469e-011	3.8215e-011	2.79701e-011	1.82656e-011	9.2636e-012	8.86883e-013	-6.84928e-012	-1.39353e-011	-2.03289e-011	-2.61134e-011	-3.16234e-011	-3.66175e-011	-4.10823e-011	-4.52521e-011	-4.89864e-011	
CoarseR120	-2.66113e-012	1.61882e-011	2.94866e-011	3.99726e-011	4.78431e-011	5.39107e-011	5.79779e-011	6.04093e-011	6.12912e-011	6.07412e-011	5.85987e-011	5.46206e-011	4.58945e-011	3.59458e-011	2.64815e-011	1.77764e-011	9.67582e-012	2.2769e-012	-4.62701e-012	-1.09963e-011	-1.66046e-011	-2.1859e-011	-2.67478e-011	-3.11918e-011	-3.53065e-011	-3.91062e-011	
CoarseR130	6.55393e-012	2.55734e-011	3.89796e-011	4.96442e-011	5.75588e-011	6.37192e-011	6.79093e-011	7.03288e-011	7.11131e-011	7.05215e-011	6.81965e-011	6.30316e-011	5.28487e-011	4.32078e-011	3.414e-011	2.57469e-011	1.79392e-011	1.05438e-011	3.94994e-012	-2.20384e-012	-7.80366e-012	-1.30185e-011	-1.78157e-011	-2.22525e-011	-2.62743e-011	-3.00059e-011	
CoarseR140	1.42066e-011	3.33978e-011	4.70506e-011	5.77444e-011	6.59325e-011	7.1976e-011	7.63317e-011	7.88032e-011	7.96584e-011	7.8986e-011	7.62687e-011	6.95687e-011	5.93847e-011	5.00852e-011	4.12789e-011	3.30644e-011	2.54836e-011	1.83067e-011	1.18138e-011	5.75099e-012	1.48277e-013	-4.91248e-012	-9.65154e-012	-1.40033e-011	-1.79384e-011	-2.16402e-011	
CoarseR150	2.07436e-011	4.01117e-011	5.38923e-011	6.4675e-011	7.29335e-011	7.92952e-011	8.37036e-011	8.62678e-011	8.72514e-011	8.64338e-011	8.34658e-011	7.54394e-011	6.57246e-011	5.66915e-011	4.79977e-011	3.99608e-011	3.24874e-011	2.55813e-011	1.91573e-011	1.30611e-011	7.54279e-012	2.50824e-012	-2.06251e-012	-6.4119e-012	-1.03735e-011	-1.40652e-011	
CoarseR160	2.59846e-011	4.55116e-011	5.96002e-011	7.05258e-011	7.90562e-011	8.5401e-011	8.99252e-011	9.27637e-011	9.37999e-011	9.30713e-011	8.98766e-011	8.09826e-011	7.13965e-011	6.26924e-011	5.43188e-011	4.64336e-011	3.90765e-011	3.2282e-011	2.57932e-011	1.98731e-011	1.45346e-011	9.42766e-012	4.80697e-012	4.78741e-013	-3.45293e-012	-7.06764e-012	
CoarseR170	3.02599e-011	5.00415e-011	6.429e-011	7.54928e-011	8.40513e-011	9.06799e-011	9.54378e-011	9.82397e-011	9.94535e-011	9.88465e-011	9.53544e-011	8.63777e-011	7.70172e-011	6.83783e-011	6.00552e-011	5.24588e-011	4.52275e-011	3.84231e-011	3.21728e-011	2.62575e-011	2.09328e-011	1.58147e-011	1.12597e-011	6.93004e-012	2.94183e-012	-6.82571e-013	
CoarseR180	3.3626e-011	5.38226e-011	6.82659e-011	7.95506e-011	8.84486e-011	9.51158e-011	1.00068e-010	1.03257e-010	1.04569e-010	1.03971e-010	1.00388e-010	9.13303e-011	8.22636e-011	7.37218e-011	6.56914e-011	5.80421e-011	5.08188e-011	4.41571e-011	3.79362e-011	3.21178e-011	2.68047e-011	2.17753e-011	1.71129e-011	1.29031e-011	8.83538e-012	5.17238e-012	
CoarseR190	3.63476e-011	5.67353e-011	7.13671e-011	8.29458e-011	9.19603e-011	9.89388e-011	1.04024e-010	1.07279e-010	1.0881e-010	1.08596e-010	1.04913e-010	9.61264e-011	8.71535e-011	7.87713e-011	7.0713e-011	6.32688e-011	5.60846e-011	4.94196e-011	4.32694e-011	3.74434e-011	3.20845e-011	2.71221e-011	2.25777e-011	1.82183e-011	1.42056e-011	1.05581e-011	
CoarseR200	3.83679e-011	5.90103e-011	7.38467e-011	8.56364e-011	9.48437e-011	1.0209e-010	1.07491e-010	1.10857e-010	1.1277e-010	1.12481e-010	1.09094e-010	1.00516e-010	9.16306e-011	8.34013e-011	7.54042e-011	6.78653e-011	6.08793e-011	5.4248e-011	4.81314e-011	4.23424e-011	3.70074e-011	3.20971e-011	2.73579e-011	2.30975e-011	1.91867e-011	1.54189e-011	
CoarseR210	3.98704e-011	6.0623e-011	7.56833e-011	8.77764e-011	9.72844e-011	1.04707e-010	1.1025e-010	1.13944e-010	1.15976e-010	1.16004e-010	1.12935e-010	1.04502e-010	9.57657e-011	8.77267e-011	7.96988e-011	7.23567e-011	6.52877e-011	5.8672e-011	5.2549e-011	4.68349e-011	4.14589e-011	3.63959e-011	3.18641e-011	2.75098e-011	2.35644e-011	1.97891e-011	
CoarseR220	4.08642e-011	6.18631e-011	7.71243e-011	8.93954e-011	9.91556e-011	1.0669e-010	1.12561e-010	1.16493e-010	1.18709e-010	1.19101e-010	1.16386e-010	1.08208e-010	9.96254e-011	9.14791e-011	8.3589e-011	7.6162e-011	6.92428e-011	6.26386e-011	5.65249e-011	5.08519e-011	4.5464e-011	4.05044e-011	3.58292e-011	3.14615e-011	2.74251e-011	2.37112e-011	
CoarseR230	4.13776e-011	6.268e-011	7.81745e-011	9.06527e-011	1.0058e-010	1.08357e-010	1.14438e-010	1.18514e-010	1.20941e-010	1.21609e-010	1.19437e-010	1.11747e-010	1.03151e-010	9.5009e-011	8.72726e-011	7.98617e-011	7.30417e-011	6.63142e-011	6.02266e-011	5.44933e-011	4.90883e-011	4.41201e-011	3.9422e-011	3.50678e-011	3.10673e-011	2.71711e-011	
CoarseR240	4.15767e-011	6.30904e-011	7.87613e-011	9.14372e-011	1.0169e-010	1.09627e-010	1.15878e-010	1.2023e-010	1.22762e-010	1.23755e-010	1.22009e-010	1.14869e-010	1.06284e-010	9.82179e-011	9.05161e-011	8.3087e-011	7.62123e-011	6.95781e-011	6.34129e-011	5.77178e-011	5.23043e-011	4.72813e-011	4.25974e-011	3.8068e-011	3.41013e-011	3.02928e-011	
CoarseR250	4.14231e-011	6.32042e-011	7.90932e-011	9.20385e-011	1.02343e-010	1.10588e-010	1.16921e-010	1.21436e-010	1.24382e-010	1.25453e-010	1.24328e-010	1.17671e-010	1.09166e-010	1.01047e-010	9.32973e-011	8.59464e-011	7.90689e-011	7.24628e-011	6.62394e-011	6.04691e-011	5.50751e-011	5.00445e-011	4.53741e-011	4.0993e-011	3.67841e-011	3.2943e-011	
MinCout:	-2.94974e-014	CoarseR:	90	CoarseC:	30

	CoarseC40	CoarseC41	CoarseC42	CoarseC43	CoarseC44	CoarseC45	CoarseC46	CoarseC47	CoarseC48	CoarseC49	CoarseC50	CoarseC51	CoarseC52	CoarseC53	CoarseC54	CoarseC55	CoarseC56	CoarseC57	CoarseC58	CoarseC59	CoarseC60	
CoarseR70	-2.99136e-011	-2.92054e-011	-2.85786e-011	-2.79678e-011	-2.72948e-011	-2.67041e-011	-2.61698e-011	-2.55665e-011	-2.50263e-011	-2.46476e-011	-2.40003e-011	-2.35289e-011	-2.29985e-011	-2.24907e-011	-2.20107e-011	-2.16155e-011	-2.11583e-011	-2.07581e-011	-2.04159e-011	-2.00556e-011	-1.96027e-011	
CoarseR71	-2.76441e-011	-2.69414e-011	-2.62172e-011	-2.57124e-011	-2.49815e-011	-2.44137e-011	-2.3781e-011	-2.32053e-011	-2.26279e-011	-2.22552e-011	-2.17129e-011	-2.11428e-011	-2.0719e-011	-2.0231e-011	-1.97972e-011	-1.93465e-011	-1.89532e-011	-1.84724e-011	-1.81156e-011	-1.77589e-011	-1.7474e-011	
CoarseR72	-2.53828e-011	-2.47237e-011	-2.40432e-011	-2.34627e-011	-2.27758e-011	-2.22117e-011	-2.16431e-011	-2.10726e-011	-2.04544e-011	-1.99221e-011	-1.95053e-011	-1.89635e-011	-1.8542e-011	-1.80155e-011	-1.75692e-011	-1.71817e-011	-1.66884e-011	-1.63138e-011	-1.59172e-011	-1.55643e-011	-1.52237e-011	
CoarseR73	-2.32482e-011	-2.25535e-011	-2.18375e-011	-2.11759e-011	-2.05751e-011	-2.00544e-011	-1.94731e-011	-1.89228e-011	-1.83527e-011	-1.78226e-011	-1.73065e-011	-1.67452e-011	-1.63104e-011	-1.58894e-011	-1.54037e-011	-1.50199e-011	-1.45922e-011	-1.41428e-011	-1.38121e-011	-1.33569e-011	-1.31229e-011	
CoarseR74	-2.10194e-011	-2.043e-011	-1.97788e-011	-1.90198e-011	-1.84024e-011	-1.77841e-011	-1.73279e-011	-1.67208e-011	-1.61543e-011	-1.56694e-011	-1.52201e-011	-1.47044e-011	-1.41685e-011	-1.37345e-011	-1.33143e-011	-1.28317e-011	-1.23454e-011	-1.20808e-011	-1.16757e-011	-1.12264e-011	-1.09091e-011	
CoarseR75	-1.89836e-011	-1.82354e-011	-1.76282e-011	-1.69345e-011	-1.62802e-011	-1.57679e-011	-1.51501e-011	-1.46515e-011	-1.40887e-011	-1.35227e-011	-1.30993e-011	-1.25454e-011	-1.2118e-011	-1.16009e-011	-1.11662e-011	-1.07466e-011	-1.03689e-011	-9.8834e-012	-9.55971e-012	-9.26055e-012	-8.84363e-012	
CoarseR76	-1.68743e-011	-1.61918e-011	-1.54865e-011	-1.49417e-011	-1.42484e-011	-1.36787e-011	-1.29607e-011	-1.24661e-011	-1.19066e-011	-1.14489e-011	-1.09256e-011	-1.04785e-011	-9.96897e-012	-9.49879e-012	-8.96409e-012	-8.59164e-012	-8.21748e-012	-7.79703e-012	-7.41549e-012	-7.03261e-012	-6.70647e-012	
CoarseR77	-1.47727e-011	-1.40941e-011	-1.34329e-011	-1.27901e-011	-1.21434e-011	-1.16574e-011	-1.10471e-011	-1.03474e-011	-9.7919e-012	-9.37979e-012	-8.92222e-012	-8.35728e-012	-7.83247e-012	-7.47005e-012	-6.95754e-012	-6.52831e-012	-6.1577e-012	-5.73949e-012	-5.31927e-012	-4.93984e-012	-4.61765e-012	
CoarseR78	-1.27643e-011	-1.20897e-011	-1.13894e-011	-1.07499e-011	-1.0148e-011	-9.54471e-012	-9.04104e-012	-8.44975e-012	-7.83665e-012	-7.28189e-012	-6.785e-012	-6.28469e-012	-5.86755e-012	-5.38724e-012	-4.99991e-012	-4.53083e-012	-4.1637e-012	-3.6885e-012	-3.31546e-012	-2.98323e-012	-2.66482e-012	
CoarseR79	-1.08475e-011	-1.0177e-011	-9.48045e-012	-8.74055e-012	-8.14255e-012	-7.60427e-012	-7.04261e-012	-6.45525e-012	-5.95024e-012	-5.39888e-012	-4.84444e-012	-4.34799e-012	-3.89167e-012	-3.47537e-012	-2.96938e-012	-2.50435e-012	-2.20152e-012	-1.77351e-012	-1.36005e-012	-9.70705e-013	-6.5595e-013	
CoarseR80	-8.75568e-012	-8.08607e-012	-7.45759e-012	-6.76264e-012	-6.18857e-012	-5.52928e-012	-4.99151e-012	-4.34608e-012	-3.84385e-012	-3.40072e-012	-2.84994e-012	-2.29592e-012	-1.84327e-012	-1.43088e-012	-9.89859e-013	-5.27899e-013	-1.06823e-013	1.95242e-013	6.6672e-013	1.03493e-012	1.34603e-012	
CoarseR81	-6.83892e-012	-6.21572e-012	-5.52797e-012	-4.96215e-012	-4.32893e-012	-3.63054e-012	-3.11904e-012	-2.47747e-012	-2.05993e-012	-1.45404e-012	-1.01162e-012	-4.79067e-013	-5.48713e-014	4.84089e-013	8.96002e-013	1.24965e-012	1.71084e-012	2.21928e-012	2.47733e-012	2.86009e-012	3.21217e-012	
CoarseR82	-4.99578e-012	-4.33547e-012	-3.69281e-012	-3.08821e-012	-2.50168e-012	-1.86904e-012	-1.27515e-012	-6.37078e-013	-9.98342e-014	3.98808e-013	8.99214e-013	1.38425e-012	1.87318e-012	2.38359e-012	2.83544e-012	3.22907e-012	3.6436e-012	4.04327e-012	4.40238e-012	4.76439e-012	5.06937e-012	
CoarseR83	-3.16479e-012	-2.4455e-012	-1.8264e-012	-1.14304e-012	-6.21631e-013	6.0663e-015	5.95619e-013	1.16965e-012	1.76557e-012	2.26067e-012	2.75745e-012	3.32511e-012	3.66222e-012	4.16989e-012	4.61781e-012	5.06965e-012	5.48071e-012	5.83343e-012	6.17135e-012	6.65253e-012	6.95283e-012	
CoarseR84	-1.34501e-012	-5.66145e-013	6.93479e-014	7.29291e-013	1.30827e-012	1.89199e-012	2.35419e-012	2.94265e-012	3.47267e-012	4.06956e-012	4.56302e-012	5.08377e-012	5.52245e-012	5.90308e-012	6.40929e-012	6.85793e-012	7.26599e-012	7.72006e-012	8.07235e-012	8.38396e-012	8.74205e-012	
CoarseR85	4.63912e-013	1.17555e-012	1.80738e-012	2.42184e-012	3.03877e-012	3.61893e-012	4.20205e-012	4.72499e-012	5.29438e-012	5.73948e-012	6.27229e-012	6.85165e-012	7.34899e-012	7.72603e-012	8.2286e-012	8.65535e-012	9.12205e-012	9.57262e-012	9.92147e-012	1.023e-011	1.0523e-011	
CoarseR86	2.3224e-012	2.9264e-012	3.59723e-012	4.24975e-012	4.88437e-012	5.46089e-012	5.99748e-012	6.60084e-012	7.12541e-012	7.56701e-012	8.13936e-012	8.672e-012	9.10488e-012	9.55802e-012	1.0039e-011	1.04798e-011	1.08191e-011	1.1205e-011	1.16734e-011	1.20222e-011	1.23568e-011	
CoarseR87	4.02255e-012	4.72643e-012	5.35102e-012	5.95792e-012	6.67434e-012	7.20442e-012	7.77997e-012	8.2959e-012	8.85798e-012	9.33913e-012	9.86479e-012	1.03938e-011	1.08666e-011	1.13164e-011	1.17506e-011	1.21702e-011	1.26295e-011	1.29684e-011	1.33103e-011	1.37171e-011	1.40649e-011	
CoarseR88	5.68726e-012	6.45103e-012	7.05341e-012	7.71738e-012	8.32321e-012	8.89508e-012	9.46744e-012	1.01467e-011	1.06011e-011	1.10966e-011	1.16005e-011	1.21258e-011	1.26562e-011	1.29355e-011	1.35153e-011	1.4056e-011	1.43885e-011	1.48299e-011	1.51234e-011	1.55099e-011	1.59165e-011	
CoarseR89	7.50635e-012	8.14047e-012	8.71593e-012	9.35722e-012	1.00237e-011	1.05286e-011	1.1161e-011	1.17734e-011	1.22875e-011	1.27619e-011	1.32368e-011	1.38017e-011	1.42246e-011	1.47115e-011	1.51821e-011	1.56141e-011	1.59611e-011	1.63976e-011	1.67326e-011	1.71339e-011	1.7458e-011	
CoarseR90	9.05902e-012	9.79626e-012	1.04101e-011	1.10697e-011	1.16686e-011	1.21881e-011	1.27991e-011	1.3365e-011	1.38756e-011	1.43467e-011	1.49244e-011	1.53794e-011	1.5799e-011	1.63446e-011	1.68116e-011	1.72385e-011	1.75658e-011	1.80616e-011	1.83932e-011	1.8745e-011	1.91716e-011	
MinCout:	6.0663e-015	CoarseR:	83	CoarseC:	45

	FineC0	FineC10	FineC20	FineC30	FineC40	FineC50	FineC60	FineC70	FineC80	FineC90	FineC100	FineC110	FineC120	FineC130	FineC140	FineC150	FineC160	FineC170	FineC180	FineC190	FineC200	FineC210	FineC220	FineC230	FineC240	FineC250	
FineR0	-5.89797e-011	-4.80112e-011	-4.19276e-011	-3.75233e-011	-3.4379e-011	-3.18442e-011	-2.99178e-011	-2.85765e-011	-2.72966e-011	-2.62229e-011	-2.53745e-011	-2.47396e-011	-2.40678e-011	-2.3543e-011	-2.3209e-011	-2.27546e-011	-2.24032e-011	-2.2122e-011	-2.19018e-011	-2.1607e-011	-2.14313e-011	-2.11367e-011	-2.10958e-011	-2.08441e-011	-2.06987e-011	-2.05969e-011	
FineR10	-4.64934e-011	-3.57478e-011	-2.9584e-011	-2.51642e-011	-2.19987e-011	-1.94851e-011	-1.77015e-011	-1.61485e-011	-1.4982e-011	-1.39739e-011	-1.31576e-011	-1.24409e-011	-1.19363e-011	-1.13518e-011	-1.09748e-011	-1.06071e-011	-1.01938e-011	-9.99017e-012	-9.64733e-012	-9.57549e-012	-9.27665e-012	-9.14373e-012	-9.01114e-012	-8.80118e-012	-8.69679e-012	-8.6542e-012	
FineR20	-4.20027e-011	-3.12516e-011	-2.50466e-011	-2.06879e-011	-1.74366e-011	-1.49403e-011	-1.31045e-011	-1.16029e-011	-1.03993e-011	-9.44027e-012	-8.54055e-012	-7.8085e-012	-7.24535e-012	-6.78367e-012	-6.34697e-012	-5.93524e-012	-5.67138e-012	-5.34583e-012	-5.12476e-012	-4.94711e-012	-4.75331e-012	-4.6199e-012	-4.46976e-012	-4.32009e-012	-4.21401e-012	-4.08083e-012	
FineR30	-3.96788e-011	-2.89305e-011	-2.2683e-011	-1.82417e-011	-1.50412e-011	-1.26157e-011	-1.07256e-011	-9.18616e-012	-8.04781e-012	-6.96911e-012	-6.19406e-012	-5.50637e-012	-4.94425e-012	-4.42288e-012	-3.98656e-012	-3.57525e-012	-3.26789e-012	-3.04721e-012	-2.78221e-012	-2.5437e-012	-2.41036e-012	-2.26005e-012	-2.10956e-012	-1.91449e-012	-1.80846e-012	-1.76376e-012	
FineR40	-3.84206e-011	-2.76362e-011	-2.13029e-011	-1.68309e-011	-1.36369e-011	-1.11341e-011	-9.26762e-012	-7.83566e-012	-6.57752e-012	-5.62344e-012	-4.77089e-012	-4.10237e-012	-3.43659e-012	-2.91618e-012	-2.48027e-012	-2.13016e-012	-1.86667e-012	-1.55824e-012	-1.27613e-012	-1.08166e-012	-9.04025e-013	-7.53456e-013	-5.58296e-013	-5.13113e-013	-3.00931e-013	-1.94495e-013	
FineR50	-3.7419e-011	-2.66469e-011	-2.04481e-011	-1.59603e-011	-1.26695e-011	-1.01703e-011	-8.30867e-012	-6.83631e-012	-5.62154e-012	-4.66894e-012	-3.77432e-012	-3.14997e-012	-2.50304e-012	-1.96495e-012	-1.52945e-012	-1.24078e-012	-9.16059e-013	-6.51942e-013	-4.31011e-013	-1.9246e-013	2.21806e-015	2.41618e-013	3.3124e-013	4.99049e-013	6.50119e-013	6.9565e-013	
FineR60	-3.68147e-011	-2.60569e-011	-1.97635e-011	-1.53224e-011	-1.19967e-011	-9.49818e-012	-7.67964e-012	-6.20955e-012	-4.8931e-012	-3.94167e-012	-3.09096e-012	-2.42405e-012	-1.82071e-012	-1.34444e-012	-9.09367e-013	-5.59843e-013	-1.91482e-013	7.26267e-014	2.32337e-013	4.70925e-013	6.0455e-013	8.1671e-013	9.06353e-013	1.16292e-012	1.25299e-012	1.31554e-012	
FineR70	-3.63885e-011	-2.56014e-011	-1.93133e-011	-1.48135e-011	-1.153e-011	-8.99416e-012	-7.23889e-012	-5.64706e-012	-4.49615e-012	-3.39905e-012	-2.59133e-012	-1.92499e-012	-1.32227e-012	-9.07501e-013	-4.11292e-013	-6.1867e-014	2.62613e-013	6.31777e-013	7.91422e-013	9.86042e-013	1.22491e-012	1.31457e-012	1.51006e-012	1.55556e-012	1.70689e-012	1.87516e-012	
FineR80	-3.5997e-011	-2.52504e-011	-1.89674e-011	-1.45093e-011	-1.11902e-011	-8.65451e-012	-6.84116e-012	-5.31165e-012	-4.05762e-012	-3.10751e-012	-2.25796e-012	-1.5736e-012	-9.28153e-013	-4.52392e-013	-6.13085e-014	2.26543e-013	6.99686e-013	9.19744e-013	1.20181e-012	1.36187e-012	1.5739e-012	1.7519e-012	1.90332e-012	2.01022e-012	2.10002e-012	2.16283e-012	
FineR90	-3.57451e-011	-2.5006e-011	-1.86648e-011	-1.4192e-011	-1.0852e-011	-8.33946e-012	-6.56681e-012	-5.03816e-012	-3.78482e-012	-2.71244e-012	-1.92478e-012	-1.19781e-012	-7.00156e-013	-1.3787e-013	2.09719e-013	6.0248e-013	9.70554e-013	1.19063e-012	1.47264e-012	1.7114e-012	1.88904e-012	2.04004e-012	2.12995e-012	2.28126e-012	2.38829e-012	2.49534e-012	
FineR100	-3.55574e-011	-2.48248e-011	-1.84247e-011	-1.40174e-011	-1.06794e-011	-8.14838e-012	-6.23173e-012	-4.74625e-012	-3.57462e-012	-2.54472e-012	-1.75752e-012	-1.03091e-012	-4.2886e-013	8.98058e-014	5.24296e-013	8.29856e-013	1.13648e-012	1.41779e-012	1.68252e-012	1.92106e-012	2.11611e-012	2.3111e-012	2.40101e-012	2.55244e-012	2.65989e-012	2.70572e-012	
FineR110	-3.53406e-011	-2.46087e-011	-1.8212e-011	-1.38466e-011	-1.0571e-011	-7.97801e-012	-6.16575e-012	-4.6389e-012	-3.38772e-012	-2.33492e-012	-1.52894e-012	-8.64136e-013	-2.19178e-013	2.5619e-013	6.47002e-013	1.05725e-012	1.36377e-012	1.62765e-012	1.84835e-012	2.08685e-012	2.22056e-012	2.41591e-012	2.6112e-012	2.65689e-012	2.86983e-012	2.97703e-012	
FineR120	-3.52878e-011	-2.44709e-011	-1.81393e-011	-1.36744e-011	-1.03993e-011	-7.76742e-012	-5.89427e-012	-4.49055e-012	-3.28135e-012	-2.16745e-012	-1.38071e-012	-6.97577e-013	-1.57342e-013	3.79068e-013	8.13128e-013	1.16196e-012	1.46859e-012	1.7322e-012	2.01418e-012	2.20881e-012	2.44767e-012	2.64303e-012	2.73297e-012	2.88444e-012	2.93024e-012	3.082e-012	
FineR130	-3.5208e-011	-2.43879e-011	-1.80924e-011	-1.3566e-011	-1.02927e-011	-7.72252e-012	-5.78794e-012	-4.32337e-012	-3.11445e-012	-2.06231e-012	-1.27547e-012	-6.35365e-013	8.96888e-015	4.84002e-013	9.18002e-013	1.26679e-012	1.63452e-012	1.95967e-012	2.18031e-012	2.35746e-012	2.49117e-012	2.73049e-012	2.89919e-012	3.03338e-012	3.09651e-012	3.14241e-012	
FineR140	-3.50964e-011	-2.43135e-011	-1.79843e-011	-1.34588e-011	-1.01861e-011	-7.65667e-012	-5.78492e-012	-4.25935e-012	-3.00917e-012	-1.9569e-012	-1.27459e-012	-5.30422e-013	1.13842e-013	6.32177e-013	1.02281e-012	1.37158e-012	1.7393e-012	1.94177e-012	2.1797e-012	2.46225e-012	2.65733e-012	2.83533e-012	2.94274e-012	3.13828e-012	3.20145e-012	3.29147e-012	
FineR150	-3.50846e-011	-2.42041e-011	-1.78762e-011	-1.34523e-011	-1.0119e-011	-7.59239e-012	-5.7213e-012	-4.19625e-012	-3.00744e-012	-1.95613e-012	-1.15101e-012	-4.43886e-013	1.75559e-013	6.93663e-013	1.1276e-012	1.47636e-012	1.80047e-012	2.10787e-012	2.32854e-012	2.4619e-012	2.7008e-012	2.85191e-012	3.00321e-012	3.13736e-012	3.24504e-012	3.41368e-012	
FineR160	-3.50139e-011	-2.41975e-011	-1.78712e-011	-1.34484e-011	-1.00766e-011	-7.54829e-012	-5.6774e-012	-4.15251e-012	-2.90286e-012	-1.89331e-012	-1.04624e-012	-3.20757e-013	2.18902e-013	7.37055e-013	1.12756e-012	1.47623e-012	1.84387e-012	2.10761e-012	2.34551e-012	2.56668e-012	2.8056e-012	2.8954e-012	3.04673e-012	3.19825e-012	3.34995e-012	3.45728e-012	
FineR170	-3.49348e-011	-2.41909e-011	-1.78259e-011	-1.34036e-011	-1.00736e-011	-7.54672e-012	-5.63352e-012	-4.15113e-012	-2.85925e-012	-1.89283e-012	-1.00278e-012	-3.20397e-013	2.62293e-013	7.98438e-013	1.17093e-012	1.58094e-012	1.84367e-012	2.21236e-012	2.43297e-012	2.56632e-012	2.86654e-012	2.95632e-012	3.09022e-012	3.30311e-012	3.34948e-012	3.50086e-012	
FineR180	-3.50218e-011	-2.41469e-011	-1.78225e-011	-1.33998e-011	-9.96808e-012	-7.50265e-012	-5.57051e-012	-4.04617e-012	-2.85859e-012	-1.84932e-012	-1.00224e-012	-3.3847e-013	3.23797e-013	8.41804e-013	1.23222e-012	1.58081e-012	1.94837e-012	2.21206e-012	2.43263e-012	2.67107e-012	2.84862e-012	2.99978e-012	3.15111e-012	3.2413e-012	3.45436e-012	3.56171e-012	
FineR190	-3.49836e-011	-2.41055e-011	-1.78175e-011	-1.32965e-011	-1.00272e-011	-7.43914e-012	-5.56932e-012	-4.10652e-012	-2.85755e-012	-1.74501e-012	-1.00193e-012	-2.76819e-013	3.67026e-013	8.41757e-013	1.27548e-012	1.6241e-012	1.94812e-012	2.15042e-012	2.49365e-012	2.60935e-012	2.90956e-012	3.105e-012	3.13369e-012	3.34661e-012	3.39253e-012	3.49987e-012	
FineR200	-3.49745e-011	-2.41009e-011	-1.77772e-011	-1.32939e-011	-1.00252e-011	-7.4586e-012	-5.58848e-012	-4.0439e-012	-2.85689e-012	-1.74455e-012	-9.58803e-013	-2.33776e-013	3.24042e-013	7.80389e-013	1.27543e-012	1.62415e-012	1.99172e-012	2.21149e-012	2.43197e-012	2.71447e-012	2.95338e-012	3.04321e-012	3.19458e-012	3.34613e-012	3.45339e-012	3.49937e-012	
FineR210	-3.49682e-011	-2.41227e-011	-1.77111e-011	-1.33142e-011	-9.96103e-012	-7.3951e-012	-5.52548e-012	-4.00159e-012	-2.85623e-012	-1.80537e-012	-1.02003e-012	-2.33438e-013	4.10373e-013	8.85092e-013	1.2753e-012	1.72875e-012	1.93009e-012	2.21119e-012	2.43162e-012	2.71408e-012	2.89161e-012	3.10411e-012	3.19412e-012	3.34566e-012	3.4529e-012	3.60476e-012	
FineR220	-3.49682e-011	-2.41576e-011	-1.77076e-011	-1.32492e-011	-9.91969e-012	-7.4555e-012	-5.52429e-012	-3.95928e-012	-2.81333e-012	-1.76265e-012	-9.1562e-013	-2.51893e-013	3.67251e-013	8.85037e-013	1.31867e-012	1.62376e-012	1.99121e-012	2.25481e-012	2.53666e-012	2.66996e-012	2.90874e-012	3.08663e-012	3.23802e-012	3.28383e-012	3.43554e-012	3.5429e-012	
FineR230	-3.49916e-011	-2.41531e-011	-1.78315e-011	-1.33089e-011	-9.98182e-012	-7.4555e-012	-5.54407e-012	-3.95839e-012	-2.87432e-012	-1.7622e-012	-9.76854e-013	-2.5174e-013	3.67295e-013	8.84982e-013	1.27517e-012	1.62356e-012	2.03475e-012	2.2545e-012	2.47496e-012	2.69609e-012	2.89119e-012	3.04233e-012	3.28193e-012	3.32777e-012	3.43504e-012	3.58692e-012	
FineR240	-3.49879e-011	-2.42118e-011	-1.77669e-011	-1.33713e-011	-9.9798e-012	-7.45395e-012	-5.58492e-012	-4.06152e-012	-2.83216e-012	-1.82377e-012	-9.76562e-013	-2.94602e-013	3.48999e-013	8.23562e-013	1.25713e-012	1.60563e-012	1.92959e-012	2.29811e-012	2.51864e-012	2.71331e-012	2.89077e-012	2.98055e-012	3.23756e-012	3.28336e-012	3.37369e-012	3.48104e-012	
FineR250	-3.49816e-011	-2.42118e-011	-1.77879e-011	-1.33687e-011	-9.97777e-012	-7.41224e-012	-5.54289e-012	-4.01923e-012	-2.8318e-012	-1.82332e-012	-9.76562e-013	-2.51587e-013	3.05896e-013	8.66823e-013	1.3005e-012	1.64908e-012	1.97312e-012	2.25419e-012	2.47461e-012	2.6957e-012	2.89077e-012	3.02439e-012	3.17575e-012	3.32729e-012	3.43455e-012	3.54188e-012	
MinCout:	2.21806e-015	FineR:	50	FineC:	200

	FineC130	FineC131	FineC132	FineC133	FineC134	FineC135	FineC136	FineC137	FineC138	FineC139	FineC140	FineC141	FineC142	FineC143	FineC144	FineC145	FineC146	FineC147	FineC148	FineC149	FineC150	
FineR70	-8.46196e-013	-8.46178e-013	-7.59381e-013	-7.15931e-013	-6.72458e-013	-6.28995e-013	-5.24192e-013	-5.41982e-013	-4.37139e-013	-4.54891e-013	-4.11292e-013	-4.29008e-013	-3.67689e-013	-2.62761e-013	-2.80419e-013	-1.75452e-013	-1.93071e-013	-8.80642e-014	-1.49335e-013	-1.05644e-013	-6.1867e-014	
FineR71	-7.84891e-013	-8.02809e-013	-6.98078e-013	-7.15957e-013	-6.11188e-013	-5.67701e-013	-5.24219e-013	-4.8069e-013	-4.37172e-013	-3.93601e-013	-3.93565e-013	-3.06434e-013	-2.62799e-013	-3.24081e-013	-2.19142e-013	-1.75512e-013	-1.31813e-013	-1.31794e-013	-8.80642e-014	-4.43706e-014	-5.98684e-016	
FineR72	-7.41416e-013	-6.98005e-013	-5.93269e-013	-6.11136e-013	-6.11115e-013	-5.2419e-013	-4.80672e-013	-4.37165e-013	-3.93606e-013	-3.50063e-013	-3.50047e-013	-2.62838e-013	-3.06434e-013	-2.01518e-013	-2.19189e-013	-1.14234e-013	-1.31866e-013	-2.68711e-014	-4.4465e-014	6.05694e-014	4.30143e-014	
FineR73	-7.41428e-013	-6.80103e-013	-5.49774e-013	-6.11157e-013	-5.06377e-013	-4.62887e-013	-4.62887e-013	-4.19375e-013	-3.32338e-013	-3.32311e-013	-3.50063e-013	-2.45169e-013	-2.01551e-013	-1.57949e-013	-1.14289e-013	-7.0651e-014	-2.69488e-014	1.67252e-014	1.67757e-014	1.68141e-014	1.21843e-013	
FineR74	-6.80012e-013	-5.75305e-013	-5.93211e-013	-5.49774e-013	-5.06331e-013	-4.62853e-013	-3.58049e-013	-3.14531e-013	-3.3231e-013	-2.2745e-013	-2.45191e-013	-1.83877e-013	-2.01587e-013	-1.57949e-013	-1.14331e-013	-9.36381e-015	-2.69965e-014	7.80098e-014	1.67252e-014	7.80933e-014	1.0418e-013	
FineR75	-5.7522e-013	-6.36625e-013	-5.31895e-013	-4.88464e-013	-5.49774e-013	-4.01544e-013	-4.19373e-013	-3.14547e-013	-2.7101e-013	-2.88775e-013	-1.83893e-013	-2.0162e-013	-9.6698e-014	-5.3088e-014	-5.30544e-014	-7.07175e-014	3.42606e-014	7.79685e-014	7.80098e-014	6.04159e-014	1.65462e-013	
FineR76	-5.75219e-013	-5.31821e-013	-4.70506e-013	-4.44966e-013	-4.01505e-013	-3.58034e-013	-3.5802e-013	-3.14514e-013	-2.71004e-013	-2.27455e-013	-1.83909e-013	-1.83893e-013	-2.0162e-013	-9.6698e-014	-5.3088e-014	-9.42489e-015	9.55478e-014	7.79263e-014	1.82938e-013	1.65356e-013	2.70407e-013	
FineR77	-5.57274e-013	-5.13901e-013	-4.88406e-013	-4.27085e-013	-4.44966e-013	-3.40191e-013	-2.96712e-013	-2.09709e-013	-2.09698e-013	-1.83934e-013	-1.22606e-013	-1.40347e-013	-3.54361e-014	8.19087e-015	8.21003e-015	-9.46138e-015	9.55168e-014	1.39216e-013	1.39216e-013	1.65308e-013	2.26643e-013	
FineR78	-5.13802e-013	-5.13892e-013	-3.65696e-013	-3.83591e-013	-3.40146e-013	-3.58005e-013	-2.96717e-013	-2.09687e-013	-1.66168e-013	-1.66169e-013	-1.22623e-013	-7.90407e-014	-9.67674e-014	8.16558e-015	5.18121e-014	9.54499e-014	2.00434e-013	1.82812e-013	2.26543e-013	2.26543e-013	2.70295e-013	
FineR79	-5.13802e-013	-4.09094e-013	-4.27014e-013	-3.83591e-013	-2.78827e-013	-2.96683e-013	-1.9188e-013	-2.09697e-013	-1.04855e-013	-1.22634e-013	-1.77513e-014	-7.90602e-014	-3.54585e-014	2.58645e-014	5.17839e-014	9.54499e-014	9.54499e-014	2.00434e-013	1.82812e-013	2.87836e-013	3.31549e-013	
FineR80	-5.13792e-013	-4.26946e-013	-4.09094e-013	-3.8359e-013	-2.78821e-013	-2.35361e-013	-2.53204e-013	-1.48378e-013	-1.66182e-013	-6.13168e-014	-6.13085e-014	2.58226e-014	2.58367e-014	6.943e-014	1.1306e-013	1.56689e-013	2.00361e-013	2.44027e-013	2.87741e-013	2.87804e-013	3.31549e-013	
FineR81	-4.52374e-013	-3.47678e-013	-3.04296e-013	-3.22205e-013	-2.35322e-013	-2.35322e-013	-1.91852e-013	-8.70422e-014	-1.04849e-013	0	-1.77679e-014	-1.77513e-014	2.58226e-014	6.943e-014	1.74363e-013	1.56689e-013	2.00336e-013	2.44027e-013	3.05351e-013	2.87741e-013	3.9277e-013	
FineR82	-4.08926e-013	-3.04218e-013	-3.22143e-013	-2.60875e-013	-2.7877e-013	-1.73995e-013	-8.70198e-014	-1.48361e-013	-4.35294e-014	-6.13222e-014	4.35489e-014	2.57947e-014	6.9391e-014	1.1299e-013	1.56628e-013	2.61595e-013	2.00289e-013	2.61662e-013	2.44027e-013	3.49039e-013	3.92744e-013	
FineR83	-3.47588e-013	-3.04198e-013	-2.60808e-013	-2.17396e-013	-2.35283e-013	-1.30496e-013	-1.48344e-013	-8.70364e-014	-1.04854e-013	4.35377e-014	8.70979e-014	-1.77679e-014	1.30705e-013	1.30705e-013	1.74319e-013	2.17954e-013	2.61595e-013	3.05272e-013	3.48949e-013	3.49016e-013	3.92744e-013	
FineR84	-3.47565e-013	-3.04198e-013	-3.04218e-013	-2.60808e-013	-1.7395e-013	-6.91689e-014	-8.7014e-014	-2.5698e-014	0	0	8.70921e-014	1.30672e-013	1.30672e-013	1.74274e-013	1.74307e-013	2.1794e-013	3.22901e-013	3.05252e-013	4.10253e-013	3.92643e-013	4.97683e-013	
FineR85	-2.86156e-013	-2.42802e-013	-2.60741e-013	-1.56005e-013	-1.73905e-013	-2.56561e-014	-4.35041e-014	-2.56839e-014	1.04854e-013	0	1.48417e-013	1.30663e-013	2.35585e-013	2.17869e-013	2.79201e-013	3.22839e-013	3.6655e-013	3.48837e-013	4.10238e-013	4.53932e-013	4.97663e-013	
FineR86	-2.42745e-013	-1.99375e-013	-1.994e-013	-1.12547e-013	-6.91129e-014	-2.56561e-014	1.78343e-014	1.78231e-014	1.0486e-013	1.484e-013	1.0486e-013	1.48417e-013	1.91991e-013	2.35585e-013	2.79201e-013	3.2283e-013	3.66489e-013	3.05174e-013	4.53854e-013	3.92542e-013	4.5395e-013	
FineR87	-2.86124e-013	-2.42773e-013	-1.99375e-013	-1.55982e-013	-1.12567e-013	-7.79734e-015	-2.56561e-014	1.78231e-014	6.1333e-014	1.04854e-013	1.484e-013	1.91963e-013	1.91991e-013	2.96907e-013	3.22769e-013	3.2283e-013	3.66477e-013	4.10154e-013	4.53836e-013	4.53854e-013	5.58883e-013	
FineR88	-1.81338e-013	-1.37982e-013	-1.99375e-013	-5.11737e-014	-1.12547e-013	-6.91129e-014	3.56794e-014	1.78343e-014	1.22666e-013	1.0486e-013	2.09731e-013	2.53288e-013	2.35545e-013	3.40473e-013	3.22769e-013	3.84095e-013	3.84151e-013	4.71472e-013	4.10154e-013	4.53836e-013	5.58871e-013	
FineR89	-1.81338e-013	-1.99302e-013	-9.4572e-014	-1.12497e-013	-5.1201e-014	3.57126e-014	3.57018e-014	1.22677e-013	6.13413e-014	1.66195e-013	2.09742e-013	2.53296e-013	2.96873e-013	3.40475e-013	3.40473e-013	4.27732e-013	4.27736e-013	4.1007e-013	5.15076e-013	5.15157e-013	6.20186e-013	
FineR90	-1.81301e-013	-1.37948e-013	-3.32232e-014	-5.11454e-014	-7.72763e-015	-7.72763e-015	7.91947e-014	6.13467e-014	1.66195e-013	2.09719e-013	2.53273e-013	2.96839e-013	2.96878e-013	3.40428e-013	3.40475e-013	3.84094e-013	4.71386e-013	4.71393e-013	5.76394e-013	5.5877e-013	6.0248e-013	
MinCout:	0	FineR:	81	FineC:	139

