	CoarseC0	CoarseC10	CoarseC20	CoarseC30	CoarseC40	CoarseC50	CoarseC60	CoarseC70	CoarseC80	CoarseC90	CoarseC100	CoarseC110	CoarseC120	CoarseC130	CoarseC140	CoarseC150	CoarseC160	CoarseC170	CoarseC180	CoarseC190	CoarseC200	CoarseC210	CoarseC220	CoarseC230	CoarseC240	CoarseC250	
CoarseR0	-4.84619e-010	-4.69331e-010	-4.57671e-010	-4.48244e-010	-4.40696e-010	-4.34915e-010	-4.30416e-010	-4.26927e-010	-4.24326e-010	-4.22605e-010	-4.22256e-010	-4.23145e-010	-4.24168e-010	-4.25569e-010	-4.27369e-010	-4.2929e-010	-4.31226e-010	-4.33574e-010	-4.3609e-010	-4.39018e-010	-4.41497e-010	-4.43832e-010	-4.45936e-010	-4.47809e-010	-4.49357e-010	-4.50636e-010	
CoarseR10	-3.5906e-010	-3.44687e-010	-3.34322e-010	-3.26107e-010	-3.19266e-010	-3.13836e-010	-3.09448e-010	-3.06858e-010	-3.06007e-010	-3.05869e-010	-3.06137e-010	-3.07078e-010	-3.08585e-010	-3.1077e-010	-3.13363e-010	-3.16893e-010	-3.21621e-010	-3.26305e-010	-3.30631e-010	-3.34579e-010	-3.38123e-010	-3.41294e-010	-3.43988e-010	-3.46482e-010	-3.4853e-010	-3.50373e-010	
CoarseR20	-2.71751e-010	-2.58494e-010	-2.48517e-010	-2.40458e-010	-2.33856e-010	-2.2921e-010	-2.26606e-010	-2.25026e-010	-2.23868e-010	-2.23838e-010	-2.24505e-010	-2.26259e-010	-2.28837e-010	-2.33226e-010	-2.39153e-010	-2.44633e-010	-2.49863e-010	-2.54643e-010	-2.59143e-010	-2.6317e-010	-2.66838e-010	-2.70301e-010	-2.73194e-010	-2.75831e-010	-2.7824e-010	-2.8025e-010	
CoarseR30	6.5816e-010	-1.95364e-010	-1.85495e-010	-1.77608e-010	-1.72281e-010	-1.68589e-010	-1.65679e-010	-1.6368e-010	-1.62917e-010	-1.63463e-010	-1.65384e-010	-1.68992e-010	-1.75139e-010	-1.81117e-010	-1.86866e-010	-1.92298e-010	-1.97304e-010	-2.02045e-010	-2.06381e-010	-2.10529e-010	-2.14191e-010	-2.17692e-010	-2.20748e-010	-2.23544e-010	-2.26113e-010	-2.2827e-010	
CoarseR40	3.53089e-010	5.24197e-011	-1.38102e-010	-1.31428e-010	-1.26187e-010	-1.21952e-010	-1.18676e-010	-1.17305e-010	-1.17325e-010	-1.18915e-010	-1.23729e-010	-1.29863e-010	-1.35863e-010	-1.41605e-010	-1.47189e-010	-1.5248e-010	-1.57423e-010	-1.61927e-010	-1.66244e-010	-1.70282e-010	-1.74e-010	-1.77438e-010	-1.80529e-010	-1.83398e-010	-1.85953e-010	-1.88337e-010	
CoarseR50	3.76487e-010	3.7397e-010	3.34185e-010	4.14207e-010	-8.96116e-011	-8.49532e-011	-8.21503e-011	-8.11908e-011	-8.21342e-011	-8.71965e-011	-9.31094e-011	-9.89818e-011	-1.0462e-010	-1.10184e-010	-1.15534e-010	-1.20631e-010	-1.254e-010	-1.29905e-010	-1.34221e-010	-1.38214e-010	-1.41951e-010	-1.45429e-010	-1.48556e-010	-1.51403e-010	-1.53962e-010	-1.56373e-010	
CoarseR60	5.542e-010	5.68872e-010	6.9373e-010	6.06369e-010	6.73222e-010	6.37551e-010	-5.27572e-011	-5.27727e-011	-5.72145e-011	-6.25778e-011	-6.81602e-011	-7.37076e-011	-7.91937e-011	-8.44507e-011	-8.96471e-011	-9.46404e-011	-9.93101e-011	-1.03752e-010	-1.08091e-010	-1.12006e-010	-1.15568e-010	-1.19064e-010	-1.22275e-010	-1.25029e-010	-1.27729e-010	-1.30228e-010	
CoarseR70	6.47197e-010	6.40346e-010	6.91798e-010	6.70551e-010	7.26142e-010	7.39347e-010	9.81444e-010	9.79641e-010	-3.69935e-011	-4.21113e-011	-4.74084e-011	-5.27368e-011	-5.79377e-011	-6.30324e-011	-6.80566e-011	-7.29449e-011	-7.75781e-011	-8.19778e-011	-8.61492e-011	-8.9996e-011	-9.36628e-011	-9.70093e-011	-1.00233e-010	-1.03129e-010	-1.05774e-010	-1.08234e-010	
CoarseR80	5.63162e-010	6.6533e-010	8.68286e-010	7.50619e-010	7.22175e-010	8.07582e-010	7.72034e-010	9.49046e-010	9.57949e-010	8.44265e-010	-2.96068e-011	-3.46489e-011	-3.97162e-011	-4.46375e-011	-4.95057e-011	-5.42897e-011	-5.8793e-011	-6.30527e-011	-6.72188e-011	-7.1063e-011	-7.47126e-011	-7.81616e-011	-8.1201e-011	-8.41807e-011	-8.68389e-011	-8.93275e-011	
CoarseR90	6.88941e-010	6.32581e-010	7.93339e-010	7.22653e-010	7.35024e-010	8.41966e-010	8.38593e-010	8.03003e-010	8.06798e-010	7.45568e-010	8.60055e-010	-1.89703e-011	-2.39858e-011	-2.87976e-011	-3.35994e-011	-3.81645e-011	-4.25144e-011	-4.67781e-011	-5.09261e-011	-5.47021e-011	-5.83408e-011	-6.17465e-011	-6.49089e-011	-6.77765e-011	-7.0545e-011	-7.29707e-011	
CoarseR100	6.80506e-010	7.45238e-010	7.29339e-010	9.03364e-010	6.83469e-010	6.71132e-010	6.70368e-010	7.96315e-010	7.55063e-010	7.45349e-010	8.06836e-010	7.14743e-010	-1.00837e-011	-1.47303e-011	-1.93456e-011	-2.38961e-011	-2.82177e-011	-3.24623e-011	-3.64581e-011	-4.02675e-011	-4.3835e-011	-4.71883e-011	-5.0327e-011	-5.32172e-011	-5.59873e-011	-5.85017e-011	
CoarseR110	7.38504e-010	7.53178e-010	7.94587e-010	7.98592e-010	7.92836e-010	7.2986e-010	7.5095e-010	6.74789e-010	7.50227e-010	9.42616e-010	8.3735e-010	9.81043e-010	1.45475e-014	-2.32479e-012	-6.92793e-012	-1.12926e-011	-1.56055e-011	-1.96244e-011	-2.36947e-011	-2.74097e-011	-3.09689e-011	-3.43651e-011	-3.74787e-011	-4.04601e-011	-4.32257e-011	-4.58257e-011	
CoarseR120	7.78719e-010	8.17243e-010	8.42494e-010	9.37254e-010	8.41954e-010	8.24174e-010	8.43799e-010	8.94815e-010	8.49344e-010	8.82545e-010	8.63658e-010	7.71398e-010	3.43839e-011	8.74275e-012	4.22414e-012	-2.10271e-013	-4.35391e-012	-8.49617e-012	-1.24029e-011	-1.61512e-011	-1.96645e-011	-2.30582e-011	-2.61656e-011	-2.9103e-011	-3.18728e-011	-3.45133e-011	
CoarseR130	4.90681e-010	5.80048e-010	6.56561e-010	6.57041e-010	5.43926e-010	5.67764e-010	5.88313e-010	6.08008e-010	6.29897e-010	6.44814e-010	6.59346e-010	6.95198e-010	2.07628e-011	1.86044e-011	1.42447e-011	9.98976e-012	5.88071e-012	1.87026e-012	-2.10885e-012	-5.82693e-012	-9.3446e-012	-1.27059e-011	-1.59146e-011	-1.88614e-011	-2.1699e-011	-2.43212e-011	
CoarseR140	4.37657e-010	4.63449e-010	4.90163e-010	5.19207e-010	5.42425e-010	5.67574e-010	5.87065e-010	6.04827e-010	6.20377e-010	6.34252e-010	6.45904e-010	6.56716e-010	3.19292e-011	2.7571e-011	2.32736e-011	1.89498e-011	1.49864e-011	1.09344e-011	7.12686e-012	3.46897e-012	-1.02082e-013	-3.52468e-012	-6.68788e-012	-9.68861e-012	-1.25687e-011	-1.52702e-011	
CoarseR150	4.32908e-010	4.59211e-010	4.84227e-010	5.0731e-010	5.36178e-010	5.53224e-010	5.72615e-010	5.91288e-010	6.08207e-010	6.23964e-010	6.38441e-010	6.50991e-010	3.99894e-011	3.57473e-011	3.14976e-011	2.7261e-011	2.31932e-011	1.92717e-011	1.53986e-011	1.16665e-011	8.17475e-012	4.77018e-012	1.57234e-012	-1.53138e-012	-4.39297e-012	-7.15317e-012	
CoarseR160	4.34013e-010	4.5958e-010	4.83441e-010	5.0556e-010	5.28357e-010	5.50557e-010	5.72716e-010	5.94079e-010	6.10378e-010	6.22534e-010	6.32556e-010	3.17446e-010	4.72278e-011	4.30921e-011	3.88719e-011	3.47486e-011	3.07066e-011	2.67376e-011	2.30094e-011	1.92728e-011	1.57355e-011	1.23802e-011	9.09514e-012	6.02435e-012	3.14562e-012	2.09649e-013	
CoarseR170	4.34778e-010	4.7338e-010	4.85831e-010	5.075e-010	5.30609e-010	5.60147e-010	5.7527e-010	5.88739e-010	6.03203e-010	6.17057e-010	6.30384e-010	5.55713e-011	5.38963e-011	4.98511e-011	4.56761e-011	4.15008e-011	3.75556e-011	3.36885e-011	2.97496e-011	2.60674e-011	2.25368e-011	1.91523e-011	1.58824e-011	1.27282e-011	9.83035e-012	7.02644e-012	
CoarseR180	4.37151e-010	4.64159e-010	4.88628e-010	5.12165e-010	5.32466e-010	5.54074e-010	5.70574e-010	5.92603e-010	6.15564e-010	6.30129e-010	6.38377e-010	6.14666e-011	5.98086e-011	5.58548e-011	5.16668e-011	4.75811e-011	4.35999e-011	3.97851e-011	3.59214e-011	3.21618e-011	2.86401e-011	2.51662e-011	2.19142e-011	1.88684e-011	1.58534e-011	1.29387e-011	
CoarseR190	4.37031e-010	4.66957e-010	4.9257e-010	5.08922e-010	5.28468e-010	5.53109e-010	5.77689e-010	6.00637e-010	6.17001e-010	6.24223e-010	6.38409e-010	6.8986e-011	6.50423e-011	6.11699e-011	5.71362e-011	5.30519e-011	4.90935e-011	4.51174e-011	4.13781e-011	3.7627e-011	3.40983e-011	3.06408e-011	2.73941e-011	2.41874e-011	2.11616e-011	1.81944e-011	
CoarseR200	4.48859e-010	4.68774e-010	4.96536e-010	5.30176e-010	5.39599e-010	5.55706e-010	5.7691e-010	5.98049e-010	6.19249e-010	6.39547e-010	6.54935e-010	7.37268e-011	6.99691e-011	6.60062e-011	6.19115e-011	5.79353e-011	5.40588e-011	5.00793e-011	4.61691e-011	4.24303e-011	3.89777e-011	3.54406e-011	3.22161e-011	2.89776e-011	2.59404e-011	2.29643e-011	
CoarseR210	4.99239e-010	4.71818e-010	5.01453e-010	5.37896e-010	5.59183e-010	5.67715e-010	5.82697e-010	6.01933e-010	6.20669e-010	6.39465e-010	6.57779e-010	7.79696e-011	7.42609e-011	7.02789e-011	6.61755e-011	6.22744e-011	5.83392e-011	5.43307e-011	5.05293e-011	4.68235e-011	4.32545e-011	3.97617e-011	3.64625e-011	3.32745e-011	3.00671e-011	2.70843e-011	
CoarseR220	5.1081e-010	5.17083e-010	5.05583e-010	5.38299e-010	5.70836e-010	5.84978e-010	5.93237e-010	6.0908e-010	6.27086e-010	6.44824e-010	6.61687e-010	8.16257e-011	7.79752e-011	7.40384e-011	7.00641e-011	6.60331e-011	6.21648e-011	5.82035e-011	5.43806e-011	5.06624e-011	4.70707e-011	4.34665e-011	4.01735e-011	3.69188e-011	3.38611e-011	3.07727e-011	
CoarseR230	5.12129e-010	5.38826e-010	5.11136e-010	5.39824e-010	5.76885e-010	5.98704e-010	6.05591e-010	6.18549e-010	6.35931e-010	6.52949e-010	6.69822e-010	8.49553e-011	8.11913e-011	7.74178e-011	7.34273e-011	6.93156e-011	6.54151e-011	6.15541e-011	5.75556e-011	5.38997e-011	5.01968e-011	4.66955e-011	4.33973e-011	4.01648e-011	3.69882e-011	3.39155e-011	
CoarseR240	5.12015e-010	5.91185e-010	5.23078e-010	5.44444e-010	5.82845e-010	6.11444e-010	6.17049e-010	6.28486e-010	6.45817e-010	6.62862e-010	6.80252e-010	8.78132e-011	8.40888e-011	8.02559e-011	7.62725e-011	7.22152e-011	6.83712e-011	6.43529e-011	6.04952e-011	5.67823e-011	5.31101e-011	4.964e-011	4.61312e-011	4.27741e-011	3.96872e-011	3.65088e-011	
CoarseR250	4.97185e-010	5.83954e-010	5.26923e-010	5.51092e-010	5.90086e-010	6.18515e-010	6.25675e-010	6.3829e-010	6.56141e-010	6.74042e-010	6.92353e-010	9.03165e-011	8.65616e-011	8.26903e-011	7.8684e-011	7.46839e-011	7.07715e-011	6.67531e-011	6.28812e-011	5.91198e-011	5.55143e-011	5.19373e-011	4.8443e-011	4.51804e-011	4.18842e-011	3.87595e-011	
MinCout:	1.45475e-014	CoarseR:	110	CoarseC:	120

	CoarseC110	CoarseC111	CoarseC112	CoarseC113	CoarseC114	CoarseC115	CoarseC116	CoarseC117	CoarseC118	CoarseC119	CoarseC120	CoarseC121	CoarseC122	CoarseC123	CoarseC124	CoarseC125	CoarseC126	CoarseC127	CoarseC128	CoarseC129	CoarseC130	
CoarseR120	6.85867e-010	8.53094e-010	7.3339e-010	7.2843e-010	8.77374e-010	7.81833e-010	8.16531e-010	7.77757e-010	7.71603e-010	8.14795e-010	3.16796e-010	6.52766e-010	1.00967e-011	8.28239e-010	9.39171e-012	7.51987e-010	1.04588e-011	7.82412e-012	7.45939e-012	7.09139e-012	8.62297e-012	
CoarseR121	7.86289e-010	8.49119e-010	7.01601e-010	7.38996e-010	7.53872e-010	7.80978e-010	8.24114e-010	7.49391e-010	7.99027e-010	5.5741e-010	3.73177e-010	2.70483e-010	2.73528e-010	1.54937e-010	1.74195e-010	2.62893e-011	6.88172e-011	8.86264e-012	8.29827e-012	8.04504e-012	9.5975e-012	
CoarseR122	7.28583e-010	7.54732e-010	7.74312e-010	7.47902e-010	8.10344e-010	8.06105e-010	8.71461e-010	8.0737e-010	8.51288e-010	6.56124e-010	3.26309e-010	3.59609e-010	2.32698e-010	3.30249e-010	7.22715e-011	2.32036e-010	1.04136e-011	9.78162e-012	9.35365e-012	9.02356e-012	8.72945e-012	
CoarseR123	7.53856e-010	8.28927e-010	8.05585e-010	7.80549e-010	7.77727e-010	7.10093e-010	7.65078e-010	7.70353e-010	8.26473e-010	6.59931e-010	5.15562e-010	3.59701e-010	2.87409e-010	2.67789e-010	1.90837e-010	9.16586e-011	6.23222e-011	1.08222e-011	1.03342e-011	1.00806e-011	9.64939e-012	
CoarseR124	7.91321e-010	7.74342e-010	8.06295e-010	9.30076e-010	8.03243e-010	8.23781e-010	7.96406e-010	8.09002e-010	8.4751e-010	7.79865e-010	6.37701e-010	5.6951e-010	2.89113e-010	4.04613e-010	1.41368e-010	3.82167e-010	1.236e-011	1.18063e-011	1.14355e-011	1.11013e-011	1.06278e-011	
CoarseR125	8.17414e-010	9.14057e-010	9.08444e-010	9.19783e-010	8.84502e-010	9.16357e-010	9.72349e-010	8.81438e-010	9.50106e-010	8.18196e-010	6.09132e-010	6.48972e-010	4.73191e-010	3.97445e-010	2.40914e-010	1.72181e-010	5.99296e-011	1.2896e-011	1.24636e-011	1.20269e-011	1.16938e-011	
CoarseR126	8.57778e-010	9.68052e-010	9.52956e-010	9.3231e-010	9.56391e-010	9.11638e-010	9.41489e-010	9.2061e-010	9.52472e-010	9.58714e-010	8.05425e-010	7.93166e-010	4.26481e-010	4.78366e-010	2.67167e-010	3.629e-010	1.43054e-011	1.38868e-011	1.33754e-011	1.31167e-011	1.26996e-011	
CoarseR127	9.42733e-010	9.71927e-010	8.49567e-010	8.67916e-010	8.7923e-010	9.20646e-010	9.6057e-010	9.27832e-010	9.24641e-010	9.15065e-010	8.7371e-010	8.67879e-010	5.89732e-010	5.79018e-010	2.73145e-010	5.078e-010	1.53642e-011	1.48452e-011	1.42511e-011	1.39486e-011	1.36132e-011	
CoarseR128	8.54335e-010	8.52433e-010	7.79816e-010	7.99565e-010	7.86894e-010	8.27469e-010	7.96073e-010	7.97743e-010	8.01709e-010	9.39929e-010	9.48861e-010	7.70541e-010	8.04312e-010	4.56607e-010	5.34522e-010	1.1367e-010	1.50512e-010	1.57764e-011	1.53411e-011	1.50202e-011	1.46612e-011	
CoarseR129	7.77689e-010	7.83986e-010	7.42825e-010	7.1666e-010	6.94836e-010	7.28602e-010	7.33045e-010	7.54854e-010	7.87844e-010	9.36805e-010	9.60714e-010	9.14185e-010	8.16755e-010	4.73038e-010	5.43212e-010	8.92106e-011	3.86068e-010	1.68612e-011	1.63805e-011	1.58965e-011	1.56192e-011	
CoarseR130	6.73302e-010	6.91454e-010	6.89238e-010	6.73616e-010	6.89774e-010	7.01175e-010	6.89381e-010	7.30029e-010	7.59611e-010	6.85705e-010	6.18012e-010	9.10866e-010	1.94071e-010	9.06782e-010	1.90867e-011	7.71086e-010	2.0349e-011	1.77006e-011	1.7242e-011	1.68192e-011	1.65409e-011	
CoarseR131	6.705e-010	6.67988e-010	6.68955e-010	6.68993e-010	6.69466e-010	6.70854e-010	6.72226e-010	6.74017e-010	8.58749e-010	9.07804e-010	9.75515e-010	9.54325e-010	5.91202e-010	7.95486e-010	8.68162e-011	9.66294e-010	1.90097e-011	1.8645e-011	1.81237e-011	1.78601e-011	1.74808e-011	
CoarseR132	6.6837e-010	6.64945e-010	6.65531e-010	6.65186e-010	6.67632e-010	6.68247e-010	6.6855e-010	6.69727e-010	6.71359e-010	1.00062e-009	9.97515e-010	7.68091e-010	8.4557e-010	3.23194e-010	6.40349e-010	2.04361e-011	1.99706e-011	1.95872e-011	1.90678e-011	1.87441e-011	1.84034e-011	
CoarseR133	6.63401e-010	6.61208e-010	6.6085e-010	6.6407e-010	6.643e-010	6.64085e-010	6.67252e-010	6.67068e-010	6.67924e-010	9.31477e-010	6.7036e-010	6.72985e-011	6.72631e-010	2.22708e-011	6.77591e-010	2.33918e-011	2.08007e-011	2.04162e-011	1.98955e-011	1.95698e-011	1.93453e-011	
CoarseR134	6.60826e-010	6.57681e-010	6.59468e-010	6.60996e-010	6.61929e-010	6.62577e-010	6.62698e-010	6.63693e-010	9.88287e-010	9.62217e-010	9.17012e-010	4.78469e-010	8.48838e-010	1.5536e-010	7.7104e-010	2.2162e-011	2.16721e-011	2.13894e-011	2.09236e-011	2.0678e-011	2.20711e-011	
CoarseR135	6.58298e-010	6.57187e-010	6.58589e-010	6.58876e-010	6.60751e-010	6.61171e-010	6.62507e-010	6.63121e-010	6.64529e-010	6.25378e-010	9.48085e-010	2.78269e-010	9.98677e-010	2.39146e-011	6.87545e-010	2.52199e-011	2.27256e-011	2.22186e-011	2.18754e-011	2.14877e-011	2.31232e-011	
CoarseR136	6.58322e-010	6.56807e-010	6.57938e-010	6.59278e-010	6.59572e-010	6.60996e-010	6.62112e-010	6.62004e-010	9.29072e-010	9.6617e-010	5.22424e-010	9.78263e-010	1.0617e-010	1.0075e-009	2.46652e-011	2.38478e-011	2.33987e-011	2.32126e-011	2.27051e-011	2.24196e-011	2.41539e-011	
CoarseR137	6.57626e-010	6.57208e-010	6.57838e-010	6.58598e-010	6.59851e-010	6.60952e-010	6.62082e-010	9.00844e-010	9.83937e-010	9.60097e-010	6.85188e-010	6.9263e-010	2.87274e-010	4.01675e-010	2.52567e-011	2.47855e-011	2.43959e-011	2.39295e-011	2.36234e-011	2.52552e-011	2.49875e-011	
CoarseR138	6.5661e-010	6.57644e-010	6.58477e-010	6.5991e-010	6.60401e-010	6.6108e-010	7.65854e-010	6.63253e-010	5.20312e-010	8.66103e-010	1.05179e-010	7.86115e-010	2.69687e-011	6.6832e-010	2.8381e-011	2.56651e-011	2.52349e-011	2.47642e-011	2.44177e-011	2.59843e-011	2.57595e-011	
CoarseR139	6.56785e-010	6.58231e-010	6.59218e-010	6.59752e-010	6.60144e-010	6.62197e-010	9.27469e-010	8.97464e-010	8.07821e-010	9.36162e-010	3.44653e-010	7.80287e-010	3.86966e-011	9.03412e-010	2.70159e-011	2.66234e-011	2.61542e-011	2.5703e-011	2.72079e-011	2.70845e-011	2.66954e-011	
CoarseR140	6.58422e-010	6.57125e-010	6.59014e-010	6.59536e-010	6.60562e-010	6.84626e-010	9.1605e-010	9.40334e-010	8.10658e-010	8.6823e-010	3.88626e-010	6.95864e-010	4.89815e-011	2.89135e-010	2.79808e-011	2.74035e-011	2.70534e-011	2.66437e-011	2.81311e-011	2.79204e-011	2.75304e-011	
MinCout:	7.09139e-012	CoarseR:	120	CoarseC:	129

	FineC0	FineC10	FineC20	FineC30	FineC40	FineC50	FineC60	FineC70	FineC80	FineC90	FineC100	FineC110	FineC120	FineC130	FineC140	FineC150	FineC160	FineC170	FineC180	FineC190	FineC200	FineC210	FineC220	FineC230	FineC240	FineC250	
FineR0	1.0163e-009	8.96577e-010	8.24164e-010	7.46028e-010	8.18457e-010	7.58236e-010	8.31034e-010	8.12112e-010	8.55568e-010	8.66066e-010	7.51582e-010	7.44624e-010	8.48652e-010	8.49315e-010	8.77149e-010	8.22971e-010	7.96818e-010	9.16488e-010	8.47366e-010	8.82002e-010	8.80132e-010	8.37121e-010	7.15697e-010	7.88681e-010	8.50853e-010	8.084e-010	
FineR10	8.66934e-010	7.08565e-010	8.55175e-010	9.01478e-010	8.57085e-010	8.49108e-010	8.29253e-010	7.46539e-010	7.88883e-010	5.52176e-010	7.15805e-010	7.07006e-010	8.57326e-010	8.92871e-010	6.81397e-010	8.25609e-010	7.08225e-010	8.36086e-010	8.98628e-010	8.08832e-010	7.78095e-010	8.52114e-010	7.93825e-010	8.61875e-010	9.72939e-010	7.80869e-010	
FineR20	8.93171e-010	8.47699e-010	8.9806e-010	7.42462e-010	8.33466e-010	5.97774e-010	7.74384e-010	8.21905e-010	5.27058e-010	7.83062e-010	5.13633e-010	7.90289e-010	7.86133e-010	6.8348e-010	8.10284e-010	8.45497e-010	7.97721e-010	7.6902e-010	7.43356e-010	7.34124e-010	7.69584e-010	7.27909e-010	6.20946e-010	7.91891e-010	8.67334e-010	8.42199e-010	
FineR30	7.58619e-010	8.39138e-010	8.33326e-010	8.48822e-010	7.73717e-010	6.8378e-010	7.4089e-010	9.43334e-010	5.49158e-010	8.73747e-010	8.4727e-010	7.34281e-010	5.80707e-010	7.33335e-010	6.95706e-010	8.27602e-010	7.25934e-010	8.29422e-010	7.93797e-010	8.02087e-010	8.57113e-010	8.25584e-010	7.52634e-010	7.80335e-010	8.50633e-010	8.18523e-010	
FineR40	8.93014e-010	8.14084e-010	7.99048e-010	8.559e-010	7.78279e-010	7.19369e-010	6.90419e-010	7.45898e-010	5.05486e-010	7.96954e-010	8.18375e-010	9.36043e-010	4.74003e-010	8.96813e-010	8.12753e-010	6.82869e-010	8.15902e-010	8.29636e-010	8.1448e-010	7.80006e-010	8.12045e-010	8.55739e-010	7.84577e-010	7.89481e-010	7.30044e-010	7.89559e-010	
FineR50	8.96829e-010	8.00374e-010	6.67594e-010	7.90201e-010	8.56299e-010	7.74658e-010	7.83217e-010	7.67127e-010	6.68116e-010	7.74398e-010	7.76532e-010	6.00594e-010	7.42346e-010	8.11274e-010	8.01655e-010	8.2551e-010	7.19961e-010	8.1892e-010	7.22119e-010	8.75344e-010	7.69677e-010	7.37782e-010	8.60432e-010	8.49222e-010	8.08164e-010	8.79076e-010	
FineR60	8.28339e-010	8.46812e-010	7.71008e-010	8.6444e-010	8.32778e-010	8.45747e-010	7.15888e-010	5.65566e-010	6.42505e-010	8.7281e-010	7.79939e-010	8.06382e-010	6.38219e-010	8.0626e-010	7.68214e-010	8.87001e-010	8.6626e-010	7.71237e-010	7.76562e-010	8.79597e-010	8.23593e-010	7.18069e-010	8.25049e-010	9.03506e-010	8.24413e-010	8.31192e-010	
FineR70	8.97202e-010	7.15263e-010	7.75211e-010	8.03163e-010	8.23954e-010	7.62412e-010	9.04393e-010	8.1673e-010	6.95044e-010	7.61114e-010	5.33541e-010	9.5892e-010	8.71252e-010	8.36319e-010	6.17926e-010	8.01211e-010	8.18718e-010	8.7873e-010	8.87836e-010	7.50207e-010	9.07167e-010	8.27665e-010	9.30715e-010	8.55663e-010	8.3862e-010	8.15629e-010	
FineR80	8.98558e-010	8.36852e-010	9.04678e-010	7.82672e-010	8.54441e-010	6.87354e-010	9.44216e-010	9.00911e-010	7.02896e-010	7.83755e-010	5.47271e-010	7.87868e-010	7.83292e-010	6.53808e-010	8.4353e-010	8.18589e-010	7.46098e-010	8.576e-010	7.71715e-010	7.21551e-010	8.40239e-010	6.94339e-010	8.47578e-010	7.60596e-010	8.20232e-010	8.53333e-010	
FineR90	8.73197e-010	9.34059e-010	8.35766e-010	8.77035e-010	8.21154e-010	7.66572e-010	8.75134e-010	6.1142e-010	8.38291e-010	8.18403e-010	8.4332e-010	8.27194e-010	7.63557e-010	8.33176e-010	7.92187e-010	8.12565e-010	7.85729e-010	7.85274e-010	7.8385e-010	8.30484e-010	8.37076e-010	8.36874e-010	6.78441e-010	9.4112e-010	6.99989e-010	8.45188e-010	
FineR100	9.19353e-010	8.35398e-010	8.14758e-010	7.76804e-010	8.59586e-010	8.87701e-010	8.88231e-010	6.78734e-010	6.26042e-010	8.97596e-010	6.31888e-010	8.35041e-010	8.23395e-010	8.48913e-010	7.38299e-010	8.40145e-010	7.94468e-010	8.30626e-010	7.00088e-010	8.34199e-010	7.36461e-010	9.20623e-010	7.94804e-010	8.46526e-010	8.07474e-010	7.19859e-010	
FineR110	8.54968e-010	8.24314e-010	8.48792e-010	8.5128e-010	8.36564e-010	8.17551e-010	6.79989e-010	7.86897e-010	7.85366e-010	7.91974e-010	7.26203e-010	8.15464e-010	7.22955e-010	8.62606e-010	6.76911e-010	8.05839e-010	7.60613e-010	8.77109e-010	7.60404e-010	7.94717e-010	8.01655e-010	7.9402e-010	8.74287e-010	7.6445e-010	7.29893e-010	7.5167e-010	
FineR120	9.31735e-010	7.92325e-010	7.84375e-010	8.34498e-010	8.52011e-010	9.31658e-010	9.18578e-010	7.34143e-010	8.24961e-010	6.64246e-010	7.3706e-010	9.07157e-010	8.00675e-010	7.637e-010	8.93456e-010	7.10159e-010	6.77934e-010	8.48654e-010	7.30287e-010	8.74316e-010	8.34564e-010	7.54841e-010	7.19712e-010	8.70425e-010	7.05107e-010	8.6288e-010	
FineR130	8.40268e-010	8.31866e-010	8.40988e-010	8.492e-010	8.26038e-010	7.9965e-010	7.95425e-010	6.97172e-010	7.6513e-010	8.03714e-010	7.10572e-010	8.6294e-010	8.29979e-010	8.17036e-010	8.7863e-010	8.68413e-010	8.26578e-010	8.5172e-010	7.94181e-010	7.34775e-010	7.31693e-010	8.36289e-010	8.23305e-010	7.43521e-010	8.17199e-010	7.5062e-010	
FineR140	8.2317e-010	7.83199e-010	7.96823e-010	8.72928e-010	8.3594e-010	8.27887e-010	7.58745e-010	9.14714e-010	8.26961e-010	7.72797e-010	8.86503e-010	8.05579e-010	7.86303e-010	8.17316e-010	9.04983e-010	8.29344e-010	6.65321e-010	8.31549e-010	7.33475e-010	7.83599e-010	7.88066e-010	7.53922e-010	8.86012e-010	7.78543e-010	8.88977e-010	7.96995e-010	
FineR150	7.5183e-010	8.12393e-010	8.835e-010	7.91005e-010	8.53003e-010	8.08966e-010	8.06279e-010	7.04133e-010	6.85545e-010	8.40964e-010	8.43805e-010	8.29161e-010	8.12609e-010	8.15501e-010	7.67605e-010	8.52689e-010	8.2866e-010	8.0767e-010	8.94388e-010	7.79019e-010	8.40857e-010	8.3826e-010	8.38681e-010	7.56162e-010	7.96377e-010	7.59542e-010	
FineR160	8.79613e-010	8.79199e-010	9.37285e-010	8.08419e-010	8.32029e-010	7.5691e-010	7.57588e-010	8.00649e-010	7.19135e-010	8.71611e-010	7.02429e-010	8.17598e-010	7.3845e-010	8.19515e-010	8.13322e-010	8.09126e-010	8.18312e-010	8.32063e-010	8.51389e-010	8.08067e-010	7.68233e-010	7.20414e-010	7.6868e-010	8.86011e-010	8.4084e-010	7.52011e-010	
FineR170	8.30328e-010	8.45617e-010	8.37364e-010	7.83523e-010	7.95699e-010	8.02578e-010	7.7915e-010	7.31596e-010	7.41108e-010	7.3117e-010	8.863e-010	8.50969e-010	7.94153e-010	8.53452e-010	8.41821e-010	8.8594e-010	8.01923e-010	7.8325e-010	8.59733e-010	8.54534e-010	8.38791e-010	7.25166e-010	7.49972e-010	7.59843e-010	7.36742e-010	8.43959e-010	
FineR180	7.4182e-010	8.13203e-010	8.14179e-010	8.56966e-010	8.06558e-010	9.76914e-010	7.74315e-010	7.49305e-010	8.79836e-010	6.94107e-010	8.48631e-010	8.76899e-010	7.62211e-010	7.32751e-010	8.78511e-010	7.63902e-010	8.61186e-010	8.96645e-010	8.05247e-010	8.47386e-010	6.78286e-010	8.12548e-010	7.74488e-010	8.95146e-010	8.85085e-010	8.56178e-010	
FineR190	8.83419e-010	8.18731e-010	7.40291e-010	8.40338e-010	8.53536e-010	8.55557e-010	8.24256e-010	8.20822e-010	8.47404e-010	7.58728e-010	8.70256e-010	7.22808e-010	8.21135e-010	7.4763e-010	7.78737e-010	7.52092e-010	8.58545e-010	8.38021e-010	7.03282e-010	7.32718e-010	8.33187e-010	7.1435e-010	7.82736e-010	9.046e-010	7.91368e-010	7.0163e-010	
FineR200	8.30237e-010	7.35451e-010	9.01359e-010	7.7775e-010	7.58593e-010	7.81926e-010	7.7175e-010	8.15287e-010	8.00152e-010	8.50745e-010	7.67606e-010	7.98322e-010	8.69663e-010	7.88586e-010	9.07336e-010	8.07637e-010	7.78944e-010	7.2582e-010	7.53242e-010	9.04852e-010	7.92439e-010	7.21165e-010	8.46302e-010	7.71192e-010	8.71819e-010	8.25278e-010	
FineR210	8.50066e-010	9.11516e-010	7.56805e-010	8.29713e-010	9.22201e-010	7.52185e-010	8.81832e-010	8.27047e-010	8.47545e-010	7.51467e-010	8.85951e-010	8.0716e-010	7.46543e-010	8.39981e-010	8.4274e-010	6.96899e-010	8.87047e-010	8.04835e-010	7.67993e-010	7.3347e-010	8.88607e-010	7.52147e-010	8.00387e-010	7.5149e-010	8.15303e-010	9.03621e-010	
FineR220	8.33742e-010	7.84901e-010	8.14071e-010	7.60111e-010	7.36871e-010	8.76563e-010	7.71495e-010	7.84522e-010	8.24446e-010	6.87056e-010	6.62459e-010	8.12516e-010	6.92879e-010	7.34644e-010	8.07851e-010	8.21709e-010	8.34756e-010	8.51497e-010	8.10571e-010	7.97989e-010	7.85041e-010	6.83996e-010	8.01215e-010	7.59441e-010	8.75324e-010	7.21696e-010	
FineR230	8.6111e-010	8.21765e-010	8.97108e-010	8.20245e-010	8.33284e-010	7.55838e-010	8.48306e-010	7.24237e-010	7.074e-010	8.15423e-010	7.23971e-010	8.98444e-010	8.89427e-010	7.96394e-010	8.87868e-010	8.35762e-010	8.88968e-010	7.85445e-010	7.40399e-010	7.97158e-010	7.43615e-010	8.65984e-010	7.98677e-010	7.58228e-010	7.16841e-010	8.17571e-010	
FineR240	7.18871e-010	7.14543e-010	8.24477e-010	7.18463e-010	8.83197e-010	9.05016e-010	7.58318e-010	8.01862e-010	6.78873e-010	7.98377e-010	6.94274e-010	7.22347e-010	8.13593e-010	8.05188e-010	8.33321e-010	8.11654e-010	7.79038e-010	7.91312e-010	8.40822e-010	8.53883e-010	8.59204e-010	8.24405e-010	8.3956e-010	7.51579e-010	7.50874e-010	8.16993e-010	
FineR250	8.10586e-010	9.25375e-010	7.20566e-010	8.08632e-010	7.69609e-010	8.73153e-010	7.55594e-010	8.54934e-010	8.28697e-010	8.13667e-010	8.86118e-010	8.27312e-010	7.21802e-010	7.97477e-010	8.00161e-010	7.82371e-010	8.25092e-010	8.78927e-010	7.72522e-010	7.01522e-010	8.79677e-010	8.11924e-010	8.01044e-010	8.19733e-010	8.78199e-010	7.40179e-010	
MinCout:	4.74003e-010	FineR:	40	FineC:	120

	FineC70	FineC71	FineC72	FineC73	FineC74	FineC75	FineC76	FineC77	FineC78	FineC79	FineC80	FineC81	FineC82	FineC83	FineC84	FineC85	FineC86	FineC87	FineC88	FineC89	FineC90	
FineR30	8.67447e-010	6.6175e-010	8.00003e-010	7.73306e-010	7.88804e-010	8.05331e-010	8.11059e-010	7.02126e-010	8.13214e-010	8.05877e-010	7.81459e-010	8.63205e-010	8.31908e-010	8.5158e-010	7.52482e-010	7.02396e-010	7.47326e-010	8.53155e-010	7.54142e-010	7.16661e-010	7.99148e-010	
FineR31	7.41748e-010	8.39348e-010	7.6395e-010	8.26258e-010	8.69911e-010	8.05423e-010	7.93758e-010	8.75601e-010	7.7921e-010	8.18045e-010	8.53303e-010	8.77193e-010	7.9457e-010	7.78278e-010	8.21965e-010	7.70195e-010	8.77407e-010	8.28166e-010	8.99613e-010	8.31826e-010	8.51098e-010	
FineR32	8.72421e-010	8.67078e-010	9.34971e-010	8.4323e-010	8.19465e-010	8.43839e-010	8.97913e-010	8.32191e-010	7.71171e-010	8.6623e-010	8.74811e-010	8.1942e-010	9.01464e-010	7.52046e-010	8.51339e-010	8.38497e-010	8.76109e-010	7.71274e-010	8.1789e-010	8.31224e-010	8.24981e-010	
FineR33	8.36738e-010	8.89361e-010	8.15382e-010	8.92352e-010	7.61072e-010	8.24642e-010	7.56252e-010	8.9598e-010	8.59526e-010	8.32384e-010	7.39983e-010	8.41316e-010	8.37554e-010	7.09433e-010	8.45071e-010	8.27956e-010	7.92625e-010	8.32337e-010	7.37622e-010	8.31986e-010	8.88191e-010	
FineR34	8.17986e-010	8.17065e-010	7.72703e-010	8.54855e-010	8.72666e-010	8.51144e-010	8.24432e-010	8.91238e-010	8.12841e-010	7.86841e-010	6.64541e-010	8.72587e-010	7.68137e-010	8.75253e-010	7.95242e-010	8.73036e-010	8.97154e-010	7.91159e-010	7.9152e-010	7.21004e-010	7.56823e-010	
FineR35	8.33479e-010	8.23351e-010	8.14843e-010	8.90269e-010	8.06888e-010	8.58654e-010	8.70688e-010	8.2709e-010	9.4413e-010	8.27322e-010	8.11272e-010	7.73262e-010	8.38971e-010	8.91359e-010	8.0476e-010	7.99887e-010	9.63231e-010	8.4615e-010	8.13991e-010	8.03689e-010	8.03684e-010	
FineR36	8.20627e-010	7.92454e-010	7.54464e-010	7.77432e-010	9.41611e-010	8.25379e-010	7.92344e-010	7.82157e-010	8.01159e-010	7.9348e-010	8.18227e-010	9.22127e-010	8.70079e-010	9.21233e-010	8.77907e-010	8.44458e-010	7.05387e-010	8.795e-010	8.2103e-010	8.37031e-010	8.13369e-010	
FineR37	8.93142e-010	7.77453e-010	9.03989e-010	8.06863e-010	8.29968e-010	7.79948e-010	9.3912e-010	8.28867e-010	8.72052e-010	7.05939e-010	8.37874e-010	8.02513e-010	8.49634e-010	8.74223e-010	8.98808e-010	8.6673e-010	7.95745e-010	8.99273e-010	8.70069e-010	8.90623e-010	8.72663e-010	
FineR38	7.895e-010	8.84994e-010	8.49122e-010	7.42334e-010	7.99315e-010	8.54508e-010	8.17533e-010	8.35053e-010	8.75301e-010	6.85736e-010	8.5602e-010	7.8558e-010	6.85413e-010	8.30744e-010	7.89051e-010	8.51947e-010	8.84125e-010	9.60948e-010	8.53672e-010	7.88834e-010	7.32255e-010	
FineR39	8.72271e-010	8.42999e-010	8.12973e-010	8.20792e-010	8.79764e-010	8.80142e-010	8.65201e-010	6.95806e-010	7.24066e-010	7.31404e-010	8.30044e-010	7.62398e-010	8.35974e-010	8.29099e-010	8.21233e-010	8.79612e-010	8.79847e-010	8.2016e-010	7.01115e-010	6.4711e-010	8.43473e-010	
FineR40	7.44431e-010	8.26661e-010	8.6578e-010	8.30092e-010	8.71462e-010	8.12949e-010	6.90874e-010	9.60707e-010	8.1433e-010	8.45595e-010	8.39381e-010	7.34023e-010	8.09388e-010	7.83005e-010	7.93571e-010	8.54628e-010	7.86302e-010	8.34178e-010	7.38581e-010	8.25726e-010	8.11008e-010	
FineR41	8.5687e-010	8.51092e-010	8.50729e-010	8.1113e-010	8.20739e-010	9.52903e-010	8.70567e-010	8.42866e-010	7.27051e-010	9.16986e-010	8.50908e-010	8.58773e-010	8.05682e-010	8.23212e-010	9.76851e-010	8.33649e-010	9.54403e-010	8.42243e-010	8.09713e-010	9.0959e-010	8.15028e-010	
FineR42	8.70226e-010	8.76023e-010	8.61986e-010	8.59311e-010	9.06904e-010	8.15247e-010	8.57365e-010	8.41353e-010	7.39161e-010	8.07722e-010	8.1775e-010	7.65946e-010	7.32585e-010	7.80536e-010	8.25833e-010	7.83674e-010	7.90931e-010	9.05349e-010	8.09983e-010	8.05053e-010	8.49467e-010	
FineR43	7.74481e-010	8.71526e-010	8.41333e-010	8.59516e-010	8.31072e-010	7.6133e-010	7.69834e-010	8.72849e-010	9.10626e-010	8.63794e-010	8.60191e-010	7.31398e-010	9.06388e-010	8.1145e-010	8.16981e-010	7.8925e-010	8.20086e-010	8.86987e-010	8.9961e-010	8.34433e-010	7.85352e-010	
FineR44	8.88843e-010	8.63526e-010	8.94437e-010	7.84064e-010	8.21743e-010	8.59617e-010	8.37792e-010	8.35022e-010	8.53914e-010	7.68985e-010	7.87115e-010	7.66594e-010	7.42337e-010	7.98201e-010	8.02596e-010	8.39887e-010	7.53156e-010	8.31919e-010	8.67933e-010	7.14894e-010	7.72138e-010	
FineR45	7.29758e-010	7.79122e-010	6.96436e-010	8.92111e-010	8.34805e-010	8.04921e-010	8.64643e-010	7.62686e-010	6.83524e-010	7.73784e-010	8.38534e-010	8.23588e-010	9.0303e-010	9.07741e-010	8.22414e-010	7.26162e-010	8.97354e-010	8.22617e-010	8.78884e-010	7.95566e-010	8.49992e-010	
FineR46	7.68015e-010	8.08898e-010	8.86967e-010	8.60968e-010	8.79226e-010	8.39058e-010	7.36901e-010	8.59619e-010	8.23303e-010	8.19953e-010	7.44991e-010	7.8316e-010	8.68427e-010	9.01694e-010	7.96431e-010	7.77983e-010	8.91179e-010	7.65044e-010	8.37898e-010	7.97464e-010	8.28376e-010	
FineR47	7.50844e-010	8.40187e-010	7.97075e-010	7.71517e-010	7.43124e-010	7.36341e-010	8.01244e-010	7.06905e-010	8.78854e-010	8.60145e-010	8.34562e-010	7.8271e-010	8.52319e-010	7.67886e-010	8.89984e-010	7.62926e-010	8.79147e-010	6.9866e-010	8.83418e-010	7.10532e-010	8.62251e-010	
FineR48	8.35496e-010	8.44627e-010	8.86799e-010	8.29679e-010	9.21527e-010	7.81896e-010	8.78788e-010	8.36068e-010	8.04313e-010	7.98551e-010	8.39901e-010	9.01592e-010	8.32103e-010	7.39867e-010	8.33396e-010	7.15025e-010	8.60252e-010	8.4418e-010	7.98233e-010	8.00034e-010	8.47411e-010	
FineR49	7.40497e-010	8.5525e-010	8.26316e-010	8.03723e-010	8.5758e-010	7.62881e-010	8.17861e-010	7.58155e-010	7.70924e-010	9.05613e-010	7.68092e-010	8.28587e-010	8.31147e-010	7.57171e-010	8.51154e-010	8.4791e-010	7.32437e-010	9.10301e-010	8.12166e-010	8.13437e-010	8.53294e-010	
FineR50	8.52143e-010	7.72039e-010	8.72473e-010	7.81236e-010	8.7377e-010	8.86528e-010	8.52274e-010	7.96392e-010	7.56691e-010	9.26179e-010	7.48956e-010	7.91224e-010	8.37006e-010	7.88959e-010	8.62934e-010	8.11025e-010	7.25019e-010	7.96455e-010	7.85803e-010	8.70984e-010	8.56593e-010	
MinCout:	6.4711e-010	FineR:	39	FineC:	89

