	CoarseC0	CoarseC10	CoarseC20	CoarseC30	CoarseC40	CoarseC50	CoarseC60	CoarseC70	CoarseC80	CoarseC90	CoarseC100	CoarseC110	CoarseC120	CoarseC130	CoarseC140	CoarseC150	CoarseC160	CoarseC170	CoarseC180	CoarseC190	CoarseC200	CoarseC210	CoarseC220	CoarseC230	CoarseC240	CoarseC250	
CoarseR0	-6.60149e-010	-6.59991e-010	-6.5999e-010	-6.60088e-010	-6.59944e-010	-6.60147e-010	-6.60178e-010	-6.60207e-010	-6.59966e-010	-6.60101e-010	-6.60101e-010	-6.60094e-010	-6.60131e-010	-6.5995e-010	-6.6016e-010	-6.60123e-010	-6.60009e-010	-6.60182e-010	-6.60182e-010	-6.60108e-010	-6.60181e-010	-6.6022e-010	-6.60144e-010	-6.60106e-010	-6.60152e-010	-6.60039e-010	
CoarseR10	-5.71905e-010	-5.71833e-010	-5.71765e-010	-5.71937e-010	-5.71718e-010	-5.72e-010	-5.71929e-010	-5.7189e-010	-5.71671e-010	-5.71883e-010	-5.71914e-010	-5.71836e-010	-5.71875e-010	-5.71656e-010	-5.71938e-010	-5.71868e-010	-5.71649e-010	-5.71899e-010	-5.71899e-010	-5.71782e-010	-5.71863e-010	-5.71931e-010	-5.71855e-010	-5.71784e-010	-5.71963e-010	-5.71777e-010	
CoarseR20	-5.02328e-010	-5.02151e-010	-5.02161e-010	-5.02345e-010	-5.02171e-010	-5.02372e-010	-5.02331e-010	-5.02324e-010	-5.02015e-010	-5.02233e-010	-5.02233e-010	-5.02185e-010	-5.02185e-010	-5.01967e-010	-5.02269e-010	-5.02178e-010	-5.0196e-010	-5.02178e-010	-5.02211e-010	-5.02089e-010	-5.02262e-010	-5.02204e-010	-5.02164e-010	-5.02204e-010	-5.02279e-010	-5.02123e-010	
CoarseR30	-4.46143e-010	-4.45859e-010	-4.4592e-010	-4.46076e-010	-4.45842e-010	-4.46033e-010	-4.46059e-010	-4.46095e-010	-4.45752e-010	-4.46011e-010	-4.45943e-010	-4.45894e-010	-4.45894e-010	-4.45593e-010	-4.45888e-010	-4.45888e-010	-4.45587e-010	-4.45882e-010	-4.45949e-010	-4.45762e-010	-4.45917e-010	-4.45917e-010	-4.45875e-010	-4.45875e-010	-4.45917e-010	-4.45833e-010	
CoarseR40	-4.00282e-010	-4.00017e-010	-4.00042e-010	-4.00283e-010	-3.99938e-010	-4.0024e-010	-4.00154e-010	-4.00086e-010	-3.99808e-010	-4.0011e-010	-4.00067e-010	-4.00024e-010	-4.00024e-010	-3.99716e-010	-4.00062e-010	-4.00019e-010	-3.99734e-010	-4.00013e-010	-4.00013e-010	-3.99846e-010	-4.00051e-010	-4.00051e-010	-4.00007e-010	-3.99896e-010	-4.00088e-010	-4.00002e-010	
CoarseR50	-3.62248e-010	-3.62023e-010	-3.62047e-010	-3.62248e-010	-3.61961e-010	-3.6216e-010	-3.62141e-010	-3.62249e-010	-3.61829e-010	-3.62121e-010	-3.62121e-010	-3.62077e-010	-3.62049e-010	-3.61765e-010	-3.62073e-010	-3.62029e-010	-3.6176e-010	-3.62068e-010	-3.62068e-010	-3.61941e-010	-3.62108e-010	-3.62108e-010	-3.62108e-010	-3.62103e-010	-3.62147e-010	-3.62059e-010	
CoarseR60	-3.30339e-010	-3.30089e-010	-3.30044e-010	-3.30271e-010	-3.29982e-010	-3.30295e-010	-3.3025e-010	-3.30205e-010	-3.29916e-010	-3.30188e-010	-3.30188e-010	-3.30099e-010	-3.30072e-010	-3.29854e-010	-3.3014e-010	-3.30136e-010	-3.29824e-010	-3.30092e-010	-3.3016e-010	-3.30071e-010	-3.30219e-010	-3.30202e-010	-3.30243e-010	-3.30174e-010	-3.30216e-010	-3.30198e-010	
CoarseR70	-3.02823e-010	-3.02534e-010	-3.02514e-010	-3.02785e-010	-3.02381e-010	-3.0274e-010	-3.02626e-010	-3.02626e-010	-3.02291e-010	-3.02561e-010	-3.02604e-010	-3.02448e-010	-3.02491e-010	-3.0213e-010	-3.02446e-010	-3.02446e-010	-3.02154e-010	-3.02444e-010	-3.02487e-010	-3.02354e-010	-3.02487e-010	-3.0253e-010	-3.02485e-010	-3.02485e-010	-3.02573e-010	-3.02397e-010	
CoarseR80	-2.79166e-010	-2.78895e-010	-2.7882e-010	-2.79107e-010	-2.78774e-010	-2.79017e-010	-2.79001e-010	-2.78926e-010	-2.78707e-010	-2.78949e-010	-2.78949e-010	-2.78814e-010	-2.78904e-010	-2.78571e-010	-2.78858e-010	-2.78858e-010	-2.78616e-010	-2.78858e-010	-2.78902e-010	-2.78767e-010	-2.78947e-010	-2.78902e-010	-2.78902e-010	-2.78902e-010	-2.78947e-010	-2.78856e-010	
CoarseR90	-2.58617e-010	-2.5839e-010	-2.58398e-010	-2.58555e-010	-2.58191e-010	-2.58464e-010	-2.58418e-010	-2.58418e-010	-2.58009e-010	-2.58281e-010	-2.58327e-010	-2.58304e-010	-2.58236e-010	-2.57918e-010	-2.58282e-010	-2.58305e-010	-2.57987e-010	-2.58237e-010	-2.58238e-010	-2.58214e-010	-2.58329e-010	-2.58352e-010	-2.58238e-010	-2.58238e-010	-2.5833e-010	-2.58262e-010	
CoarseR100	-2.40616e-010	-2.40342e-010	-2.40365e-010	-2.40592e-010	-2.40203e-010	-2.40491e-010	-2.4043e-010	-2.40385e-010	-2.4002e-010	-2.40339e-010	-2.40339e-010	-2.40246e-010	-2.40246e-010	-2.39929e-010	-2.40294e-010	-2.40227e-010	-2.39931e-010	-2.40296e-010	-2.40299e-010	-2.40206e-010	-2.40344e-010	-2.40299e-010	-2.40299e-010	-2.40253e-010	-2.40346e-010	-2.40208e-010	
CoarseR110	-2.2473e-010	-2.24443e-010	-2.24366e-010	-2.24681e-010	-2.24272e-010	-2.24555e-010	-2.2451e-010	-2.2451e-010	-2.24133e-010	-2.24416e-010	-2.24452e-010	-2.24326e-010	-2.24326e-010	-2.24112e-010	-2.24444e-010	-2.24399e-010	-2.24066e-010	-2.24448e-010	-2.24403e-010	-2.24309e-010	-2.24452e-010	-2.24452e-010	-2.24403e-010	-2.24358e-010	-2.24452e-010	-2.24313e-010	
CoarseR120	-2.10801e-010	-2.10532e-010	-2.10437e-010	-2.10673e-010	-2.1031e-010	-2.10673e-010	-2.10579e-010	-2.10534e-010	-2.1017e-010	-2.10489e-010	-2.10489e-010	-2.10399e-010	-2.10444e-010	-2.10113e-010	-2.10399e-010	-2.10399e-010	-2.10155e-010	-2.10405e-010	-2.10405e-010	-2.10265e-010	-2.10487e-010	-2.10455e-010	-2.1041e-010	-2.1041e-010	-2.1046e-010	-2.10365e-010	
CoarseR130	-1.98106e-010	-1.97885e-010	-1.97789e-010	-1.98055e-010	-1.97763e-010	-1.98081e-010	-1.98011e-010	-1.9796e-010	-1.97598e-010	-1.97871e-010	-1.97941e-010	-1.97827e-010	-1.97827e-010	-1.97465e-010	-1.97878e-010	-1.97833e-010	-1.97554e-010	-1.97801e-010	-1.97756e-010	-1.97649e-010	-1.9784e-010	-1.9784e-010	-1.97796e-010	-1.97796e-010	-1.97891e-010	-1.9777e-010	
CoarseR140	-1.87069e-010	-1.86754e-010	-1.86702e-010	-1.87017e-010	-1.86728e-010	-1.8701e-010	-1.86914e-010	-1.86914e-010	-1.86588e-010	-1.86903e-010	-1.86903e-010	-1.86764e-010	-1.86816e-010	-1.86457e-010	-1.86816e-010	-1.86739e-010	-1.86457e-010	-1.86739e-010	-1.86739e-010	-1.86669e-010	-1.86791e-010	-1.86747e-010	-1.86747e-010	-1.86703e-010	-1.86832e-010	-1.86659e-010	
CoarseR150	-1.77015e-010	-1.76659e-010	-1.76639e-010	-1.76919e-010	-1.76613e-010	-1.76926e-010	-1.76926e-010	-1.76893e-010	-1.76474e-010	-1.7683e-010	-1.76787e-010	-1.76743e-010	-1.76743e-010	-1.76387e-010	-1.76753e-010	-1.76753e-010	-1.76397e-010	-1.76746e-010	-1.76719e-010	-1.7657e-010	-1.76676e-010	-1.76762e-010	-1.76633e-010	-1.76666e-010	-1.76719e-010	-1.76623e-010	
CoarseR160	-1.68246e-010	-1.67936e-010	-1.67958e-010	-1.68159e-010	-1.67857e-010	-1.68167e-010	-1.68071e-010	-1.67718e-010	-1.67718e-010	-1.67975e-010	-1.67746e-010	-1.67932e-010	-1.67985e-010	-1.67703e-010	-1.67996e-010	-1.67953e-010	-1.67623e-010	-1.67953e-010	-1.6791e-010	-1.67848e-010	-1.67634e-010	-1.67964e-010	-1.6791e-010	-1.67868e-010	-1.67964e-010	-1.67825e-010	
CoarseR170	-1.60272e-010	-1.60078e-010	-1.59982e-010	-1.60255e-010	-1.59962e-010	-1.60289e-010	-1.60227e-010	-1.60193e-010	-1.59823e-010	-1.60131e-010	-1.60097e-010	-1.59959e-010	-1.60013e-010	-1.59697e-010	-1.60013e-010	-1.60004e-010	-1.59781e-010	-1.60058e-010	-1.60024e-010	-1.59903e-010	-1.60024e-010	-1.60053e-010	-1.60053e-010	-1.59973e-010	-1.60106e-010	-1.59844e-010	
CoarseR180	-1.53534e-010	-1.53272e-010	-1.5323e-010	-1.53488e-010	-1.5321e-010	-1.5348e-010	-1.53426e-010	-1.53384e-010	-1.53089e-010	-1.53288e-010	-1.53288e-010	-1.53318e-010	-1.53247e-010	-1.52901e-010	-1.53171e-010	-1.53205e-010	-1.5293e-010	-1.53218e-010	-1.53218e-010	-1.53097e-010	-1.53218e-010	-1.53176e-010	-1.53176e-010	-1.53205e-010	-1.5323e-010	-1.5308e-010	
CoarseR190	-1.47557e-010	-1.47226e-010	-1.4727e-010	-1.47469e-010	-1.47147e-010	-1.47448e-010	-1.47352e-010	-1.47352e-010	-1.46956e-010	-1.47311e-010	-1.47311e-010	-1.47253e-010	-1.47216e-010	-1.46944e-010	-1.47266e-010	-1.47266e-010	-1.46903e-010	-1.47259e-010	-1.47188e-010	-1.47122e-010	-1.4728e-010	-1.47201e-010	-1.47184e-010	-1.47184e-010	-1.47238e-010	-1.47136e-010	
CoarseR200	-1.42403e-010	-1.42105e-010	-1.42065e-010	-1.42403e-010	-1.4201e-010	-1.41955e-010	-1.42219e-010	-1.42324e-010	-1.4189e-010	-1.42229e-010	-1.42154e-010	-1.42059e-010	-1.42114e-010	-1.41876e-010	-1.42169e-010	-1.42128e-010	-1.41768e-010	-1.42121e-010	-1.42087e-010	-1.41897e-010	-1.41694e-010	-1.42087e-010	-1.42047e-010	-1.42047e-010	-1.42102e-010	-1.41945e-010	
CoarseR210	-1.38102e-010	-1.37697e-010	-1.37697e-010	-1.37959e-010	-1.37705e-010	-1.37864e-010	-1.3788e-010	-1.3784e-010	-1.37483e-010	-1.37779e-010	-1.37834e-010	-1.37705e-010	-1.37705e-010	-1.37469e-010	-1.3776e-010	-1.3772e-010	-1.37363e-010	-1.3768e-010	-1.3768e-010	-1.37544e-010	-1.3768e-010	-1.3768e-010	-1.37673e-010	-1.37639e-010	-1.37694e-010	-1.37544e-010	
CoarseR220	-1.34438e-010	-1.33996e-010	-1.3406e-010	-1.34289e-010	-1.33886e-010	-1.34234e-010	-1.34139e-010	-1.34105e-010	-1.33752e-010	-1.34082e-010	-1.34045e-010	-1.34021e-010	-1.34076e-010	-1.33689e-010	-1.34037e-010	-1.34037e-010	-1.33649e-010	-1.33997e-010	-1.33997e-010	-1.33863e-010	-1.34052e-010	-1.34012e-010	-1.33957e-010	-1.33884e-010	-1.33978e-010	-1.33823e-010	
CoarseR230	-1.31327e-010	-1.31171e-010	-1.31082e-010	-1.31255e-010	-1.3087e-010	-1.3087e-010	-1.31161e-010	-1.31161e-010	-1.30776e-010	-1.31067e-010	-1.31067e-010	-1.30972e-010	-1.31027e-010	-1.30698e-010	-1.30604e-010	-1.30988e-010	-1.30659e-010	-1.31004e-010	-1.30949e-010	-1.30815e-010	-1.30965e-010	-1.30965e-010	-1.3087e-010	-1.30925e-010	-1.30965e-010	-1.30848e-010	
CoarseR240	-1.28933e-010	-1.28684e-010	-1.28745e-010	-1.28917e-010	-1.28634e-010	-1.28606e-010	-1.28789e-010	-1.28441e-010	-1.28441e-010	-1.28695e-010	-1.28695e-010	-1.28634e-010	-1.28707e-010	-1.2838e-010	-1.28689e-010	-1.2865e-010	-1.28302e-010	-1.2865e-010	-1.2865e-010	-1.28517e-010	-1.28666e-010	-1.28611e-010	-1.28572e-010	-1.28572e-010	-1.28627e-010	-1.28529e-010	
CoarseR250	-1.27182e-010	-1.26879e-010	-1.26841e-010	-1.27109e-010	-1.26697e-010	-1.27038e-010	-1.27054e-010	-1.27054e-010	-1.2662e-010	-1.26961e-010	-1.26961e-010	-1.26829e-010	-1.26829e-010	-1.26543e-010	-1.26884e-010	-1.26846e-010	-1.26466e-010	-1.26807e-010	-1.26807e-010	-1.26675e-010	-1.26807e-010	-1.26807e-010	-1.26768e-010	-1.26768e-010	-1.26823e-010	-1.26637e-010	
MinCout:	-1.26466e-010	CoarseR:	250	CoarseC:	160

	CoarseC130	CoarseC131	CoarseC132	CoarseC133	CoarseC134	CoarseC135	CoarseC136	CoarseC137	CoarseC138	CoarseC139	CoarseC140	CoarseC141	CoarseC142	CoarseC143	CoarseC144	CoarseC145	CoarseC146	CoarseC147	CoarseC148	CoarseC149	CoarseC150	
CoarseR220	-1.33832e-010	-1.33649e-010	-1.33682e-010	-1.33579e-010	-1.33643e-010	-1.33545e-010	-1.33579e-010	-1.33932e-010	-1.33609e-010	-1.33579e-010	-1.33579e-010	-1.33932e-010	-1.33616e-010	-1.33932e-010	-1.33932e-010	-1.33932e-010	-1.33609e-010	-1.33524e-010	-1.33505e-010	-1.33838e-010	-1.3349e-010	
CoarseR221	-1.33425e-010	-1.33291e-010	-1.33291e-010	-1.33261e-010	-1.33362e-010	-1.33298e-010	-1.33227e-010	-1.33614e-010	-1.33285e-010	-1.33291e-010	-1.33227e-010	-1.33614e-010	-1.33243e-010	-1.33574e-010	-1.33574e-010	-1.33645e-010	-1.33362e-010	-1.33204e-010	-1.33204e-010	-1.33591e-010	-1.33259e-010	
CoarseR222	-1.33233e-010	-1.33099e-010	-1.33099e-010	-1.32996e-010	-1.33044e-010	-1.33099e-010	-1.32941e-010	-1.33257e-010	-1.33005e-010	-1.32941e-010	-1.32941e-010	-1.33294e-010	-1.32941e-010	-1.32941e-010	-1.33294e-010	-1.33294e-010	-1.32971e-010	-1.32852e-010	-1.32941e-010	-1.33254e-010	-1.32971e-010	
CoarseR223	-1.32882e-010	-1.32803e-010	-1.32803e-010	-1.32685e-010	-1.32748e-010	-1.32685e-010	-1.32748e-010	-1.33032e-010	-1.32882e-010	-1.32645e-010	-1.32645e-010	-1.32645e-010	-1.32645e-010	-1.32645e-010	-1.32943e-010	-1.32998e-010	-1.32709e-010	-1.32628e-010	-1.32645e-010	-1.32943e-010	-1.3259e-010	
CoarseR224	-1.32587e-010	-1.32487e-010	-1.32487e-010	-1.32424e-010	-1.32487e-010	-1.32487e-010	-1.32369e-010	-1.32776e-010	-1.32447e-010	-1.32384e-010	-1.32295e-010	-1.3235e-010	-1.32384e-010	-1.32736e-010	-1.32736e-010	-1.32681e-010	-1.32492e-010	-1.32295e-010	-1.32295e-010	-1.32329e-010	-1.32295e-010	
CoarseR225	-1.32326e-010	-1.32192e-010	-1.32326e-010	-1.32129e-010	-1.32192e-010	-1.32129e-010	-1.32192e-010	-1.3242e-010	-1.32287e-010	-1.32089e-010	-1.32089e-010	-1.3242e-010	-1.32035e-010	-1.32035e-010	-1.32386e-010	-1.32386e-010	-1.32064e-010	-1.32035e-010	-1.32035e-010	-1.32347e-010	-1.32035e-010	
CoarseR226	-1.32066e-010	-1.31932e-010	-1.31898e-010	-1.31869e-010	-1.32032e-010	-1.31869e-010	-1.3178e-010	-1.32165e-010	-1.31804e-010	-1.3178e-010	-1.31859e-010	-1.32126e-010	-1.31741e-010	-1.32126e-010	-1.32126e-010	-1.32126e-010	-1.31937e-010	-1.31741e-010	-1.31741e-010	-1.32087e-010	-1.31741e-010	
CoarseR227	-1.31772e-010	-1.31678e-010	-1.31567e-010	-1.31638e-010	-1.31583e-010	-1.31575e-010	-1.31512e-010	-1.31834e-010	-1.31583e-010	-1.3152e-010	-1.31481e-010	-1.31906e-010	-1.31449e-010	-1.31872e-010	-1.31872e-010	-1.31872e-010	-1.31638e-010	-1.31481e-010	-1.31481e-010	-1.31866e-010	-1.31481e-010	
CoarseR228	-1.31424e-010	-1.31253e-010	-1.31291e-010	-1.31228e-010	-1.31424e-010	-1.31228e-010	-1.31228e-010	-1.31541e-010	-1.31253e-010	-1.31228e-010	-1.31188e-010	-1.31573e-010	-1.31173e-010	-1.31573e-010	-1.31613e-010	-1.31573e-010	-1.31251e-010	-1.31188e-010	-1.31188e-010	-1.31573e-010	-1.31188e-010	
CoarseR229	-1.31189e-010	-1.31055e-010	-1.31055e-010	-1.30953e-010	-1.31055e-010	-1.30937e-010	-1.30898e-010	-1.31249e-010	-1.30961e-010	-1.30953e-010	-1.30898e-010	-1.31249e-010	-1.30898e-010	-1.31249e-010	-1.31249e-010	-1.31249e-010	-1.31016e-010	-1.30864e-010	-1.30935e-010	-1.3121e-010	-1.30864e-010	
CoarseR230	-1.3092e-010	-1.30857e-010	-1.30857e-010	-1.3074e-010	-1.30803e-010	-1.3074e-010	-1.30701e-010	-1.31085e-010	-1.30763e-010	-1.3074e-010	-1.30701e-010	-1.31085e-010	-1.30701e-010	-1.31085e-010	-1.31051e-010	-1.31085e-010	-1.30763e-010	-1.30701e-010	-1.30701e-010	-1.30957e-010	-1.30646e-010	
CoarseR231	-1.30667e-010	-1.30534e-010	-1.30534e-010	-1.30417e-010	-1.30534e-010	-1.30451e-010	-1.30506e-010	-1.30817e-010	-1.30495e-010	-1.30377e-010	-1.30432e-010	-1.30817e-010	-1.30417e-010	-1.30762e-010	-1.30728e-010	-1.30762e-010	-1.3044e-010	-1.30377e-010	-1.30449e-010	-1.30833e-010	-1.30377e-010	
CoarseR232	-1.30471e-010	-1.30372e-010	-1.30317e-010	-1.30254e-010	-1.30372e-010	-1.30254e-010	-1.30215e-010	-1.30604e-010	-1.30243e-010	-1.30181e-010	-1.30181e-010	-1.30565e-010	-1.30181e-010	-1.30565e-010	-1.30565e-010	-1.30565e-010	-1.30243e-010	-1.30181e-010	-1.30181e-010	-1.30565e-010	-1.30126e-010	
CoarseR233	-1.30237e-010	-1.30049e-010	-1.30049e-010	-1.29987e-010	-1.30015e-010	-1.29987e-010	-1.29987e-010	-1.30336e-010	-1.30015e-010	-1.29898e-010	-1.29859e-010	-1.30297e-010	-1.29914e-010	-1.30297e-010	-1.30297e-010	-1.30297e-010	-1.29976e-010	-1.29914e-010	-1.29985e-010	-1.30297e-010	-1.29914e-010	
CoarseR234	-1.2997e-010	-1.29837e-010	-1.29798e-010	-1.29681e-010	-1.29798e-010	-1.29681e-010	-1.29681e-010	-1.30064e-010	-1.29781e-010	-1.29681e-010	-1.29681e-010	-1.3003e-010	-1.29752e-010	-1.3003e-010	-1.30064e-010	-1.3003e-010	-1.29743e-010	-1.29752e-010	-1.29681e-010	-1.29975e-010	-1.29697e-010	
CoarseR235	-1.2972e-010	-1.29587e-010	-1.29587e-010	-1.29525e-010	-1.29587e-010	-1.29486e-010	-1.29486e-010	-1.29837e-010	-1.29587e-010	-1.29415e-010	-1.29486e-010	-1.29798e-010	-1.29486e-010	-1.29869e-010	-1.29798e-010	-1.29798e-010	-1.29548e-010	-1.29486e-010	-1.29486e-010	-1.29835e-010	-1.29486e-010	
CoarseR236	-1.29454e-010	-1.2936e-010	-1.2936e-010	-1.29298e-010	-1.2936e-010	-1.29259e-010	-1.29259e-010	-1.29642e-010	-1.29321e-010	-1.29205e-010	-1.29205e-010	-1.29608e-010	-1.2917e-010	-1.29642e-010	-1.29608e-010	-1.29608e-010	-1.29321e-010	-1.2917e-010	-1.29205e-010	-1.29553e-010	-1.29205e-010	
CoarseR237	-1.29228e-010	-1.29134e-010	-1.29134e-010	-1.28978e-010	-1.29134e-010	-1.29017e-010	-1.29017e-010	-1.29382e-010	-1.29006e-010	-1.29017e-010	-1.28978e-010	-1.29327e-010	-1.28978e-010	-1.29327e-010	-1.29327e-010	-1.29327e-010	-1.29006e-010	-1.28944e-010	-1.28944e-010	-1.29327e-010	-1.28978e-010	
CoarseR238	-1.29002e-010	-1.28869e-010	-1.28869e-010	-1.28824e-010	-1.28869e-010	-1.28752e-010	-1.28768e-010	-1.2919e-010	-1.2883e-010	-1.28713e-010	-1.28751e-010	-1.29151e-010	-1.28713e-010	-1.29151e-010	-1.29151e-010	-1.29062e-010	-1.28741e-010	-1.28713e-010	-1.28751e-010	-1.29096e-010	-1.28785e-010	
CoarseR239	-1.28776e-010	-1.28715e-010	-1.28644e-010	-1.28582e-010	-1.28644e-010	-1.28582e-010	-1.28543e-010	-1.28925e-010	-1.28644e-010	-1.28543e-010	-1.28543e-010	-1.28925e-010	-1.28543e-010	-1.28891e-010	-1.28891e-010	-1.28962e-010	-1.28571e-010	-1.28454e-010	-1.28559e-010	-1.2887e-010	-1.28559e-010	
CoarseR240	-1.28606e-010	-1.28473e-010	-1.28473e-010	-1.28373e-010	-1.28473e-010	-1.28373e-010	-1.28373e-010	-1.28721e-010	-1.28434e-010	-1.28318e-010	-1.28318e-010	-1.28755e-010	-1.28373e-010	-1.28755e-010	-1.28666e-010	-1.28721e-010	-1.28434e-010	-1.28318e-010	-1.28318e-010	-1.28627e-010	-1.28389e-010	
MinCout:	-1.28318e-010	CoarseR:	240	CoarseC:	139

	FineC0	FineC10	FineC20	FineC30	FineC40	FineC50	FineC60	FineC70	FineC80	FineC90	FineC100	FineC110	FineC120	FineC130	FineC140	FineC150	FineC160	FineC170	FineC180	FineC190	FineC200	FineC210	FineC220	FineC230	FineC240	FineC250	
FineR0	-1.34653e-010	-1.34598e-010	-1.34537e-010	-1.34426e-010	-1.34537e-010	-1.34497e-010	-1.34442e-010	-1.34267e-010	-1.34203e-010	-1.34362e-010	-1.34203e-010	-1.34267e-010	-1.34402e-010	-1.34203e-010	-1.34267e-010	-1.34267e-010	-1.34228e-010	-1.34362e-010	-1.34362e-010	-1.34218e-010	-1.34307e-010	-1.34307e-010	-1.34188e-010	-1.34267e-010	-1.34218e-010	-1.34203e-010	
FineR10	-1.32938e-010	-1.32828e-010	-1.32844e-010	-1.32749e-010	-1.32804e-010	-1.32804e-010	-1.32638e-010	-1.32536e-010	-1.32417e-010	-1.32615e-010	-1.32472e-010	-1.32575e-010	-1.3267e-010	-1.32417e-010	-1.32536e-010	-1.32464e-010	-1.3248e-010	-1.32615e-010	-1.32615e-010	-1.32487e-010	-1.32504e-010	-1.32575e-010	-1.32385e-010	-1.32575e-010	-1.32472e-010	-1.32417e-010	
FineR20	-1.3236e-010	-1.32266e-010	-1.32337e-010	-1.32132e-010	-1.32171e-010	-1.32208e-010	-1.32148e-010	-1.31974e-010	-1.31911e-010	-1.32108e-010	-1.31966e-010	-1.32069e-010	-1.32037e-010	-1.31911e-010	-1.32014e-010	-1.31974e-010	-1.31974e-010	-1.32074e-010	-1.32069e-010	-1.31981e-010	-1.32069e-010	-1.32069e-010	-1.31879e-010	-1.31974e-010	-1.31926e-010	-1.31911e-010	
FineR30	-1.32173e-010	-1.32133e-010	-1.32078e-010	-1.31945e-010	-1.32005e-010	-1.32039e-010	-1.31945e-010	-1.31811e-010	-1.31708e-010	-1.3185e-010	-1.31708e-010	-1.31811e-010	-1.31945e-010	-1.31708e-010	-1.31811e-010	-1.31771e-010	-1.31716e-010	-1.3185e-010	-1.3185e-010	-1.31723e-010	-1.31811e-010	-1.31811e-010	-1.31692e-010	-1.31811e-010	-1.31708e-010	-1.31692e-010	
FineR40	-1.32056e-010	-1.32001e-010	-1.31961e-010	-1.31901e-010	-1.31906e-010	-1.31906e-010	-1.31812e-010	-1.31656e-010	-1.31664e-010	-1.31806e-010	-1.31664e-010	-1.31678e-010	-1.31806e-010	-1.31609e-010	-1.31672e-010	-1.31688e-010	-1.31672e-010	-1.31767e-010	-1.31767e-010	-1.3168e-010	-1.31696e-010	-1.31696e-010	-1.31538e-010	-1.31656e-010	-1.31625e-010	-1.31609e-010	
FineR50	-1.3197e-010	-1.31915e-010	-1.31876e-010	-1.31781e-010	-1.31876e-010	-1.31836e-010	-1.31726e-010	-1.31592e-010	-1.31545e-010	-1.31687e-010	-1.31545e-010	-1.31647e-010	-1.31687e-010	-1.3149e-010	-1.31608e-010	-1.31514e-010	-1.31553e-010	-1.31687e-010	-1.31647e-010	-1.3156e-010	-1.31647e-010	-1.31647e-010	-1.31529e-010	-1.31553e-010	-1.31505e-010	-1.3149e-010	
FineR60	-1.31951e-010	-1.31896e-010	-1.31856e-010	-1.31762e-010	-1.31817e-010	-1.31817e-010	-1.31757e-010	-1.31623e-010	-1.3156e-010	-1.31683e-010	-1.3152e-010	-1.31628e-010	-1.31723e-010	-1.3156e-010	-1.31623e-010	-1.31584e-010	-1.31495e-010	-1.31662e-010	-1.31662e-010	-1.31536e-010	-1.31662e-010	-1.31623e-010	-1.31505e-010	-1.31623e-010	-1.31575e-010	-1.3156e-010	
FineR70	-1.31955e-010	-1.31895e-010	-1.31806e-010	-1.31711e-010	-1.31766e-010	-1.318e-010	-1.31706e-010	-1.31533e-010	-1.3147e-010	-1.31667e-010	-1.3147e-010	-1.31572e-010	-1.31633e-010	-1.3147e-010	-1.31533e-010	-1.31533e-010	-1.31499e-010	-1.31627e-010	-1.31538e-010	-1.31485e-010	-1.31612e-010	-1.31627e-010	-1.31454e-010	-1.31572e-010	-1.31485e-010	-1.3147e-010	
FineR80	-1.3196e-010	-1.3192e-010	-1.31826e-010	-1.31732e-010	-1.31826e-010	-1.31826e-010	-1.31732e-010	-1.31598e-010	-1.31496e-010	-1.31637e-010	-1.31496e-010	-1.31598e-010	-1.31732e-010	-1.31441e-010	-1.31543e-010	-1.31559e-010	-1.31559e-010	-1.31653e-010	-1.31598e-010	-1.31511e-010	-1.31637e-010	-1.31598e-010	-1.3148e-010	-1.31559e-010	-1.31496e-010	-1.31535e-010	
FineR90	-1.31914e-010	-1.31931e-010	-1.31891e-010	-1.31742e-010	-1.31781e-010	-1.31781e-010	-1.31631e-010	-1.31569e-010	-1.31506e-010	-1.31663e-010	-1.31484e-010	-1.31553e-010	-1.31703e-010	-1.31506e-010	-1.31569e-010	-1.31498e-010	-1.3153e-010	-1.31663e-010	-1.31663e-010	-1.315e-010	-1.31663e-010	-1.31592e-010	-1.31474e-010	-1.31498e-010	-1.3145e-010	-1.31469e-010	
FineR100	-1.31925e-010	-1.31885e-010	-1.3183e-010	-1.31736e-010	-1.3183e-010	-1.31791e-010	-1.31697e-010	-1.31563e-010	-1.315e-010	-1.31657e-010	-1.31461e-010	-1.31563e-010	-1.31697e-010	-1.31534e-010	-1.31563e-010	-1.31524e-010	-1.31524e-010	-1.31657e-010	-1.31602e-010	-1.31476e-010	-1.31602e-010	-1.31602e-010	-1.31484e-010	-1.31563e-010	-1.3155e-010	-1.31534e-010	
FineR110	-1.32029e-010	-1.31935e-010	-1.3184e-010	-1.31746e-010	-1.3184e-010	-1.3184e-010	-1.31746e-010	-1.31573e-010	-1.3151e-010	-1.31652e-010	-1.3151e-010	-1.31628e-010	-1.31707e-010	-1.3151e-010	-1.31573e-010	-1.31573e-010	-1.31573e-010	-1.31707e-010	-1.31613e-010	-1.31526e-010	-1.31652e-010	-1.31613e-010	-1.31495e-010	-1.31573e-010	-1.31526e-010	-1.3155e-010	
FineR120	-1.3199e-010	-1.31911e-010	-1.31785e-010	-1.31725e-010	-1.31819e-010	-1.31856e-010	-1.31762e-010	-1.31573e-010	-1.31526e-010	-1.31668e-010	-1.3156e-010	-1.31628e-010	-1.31685e-010	-1.3156e-010	-1.31589e-010	-1.31623e-010	-1.3155e-010	-1.31646e-010	-1.31591e-010	-1.31575e-010	-1.31646e-010	-1.31591e-010	-1.31473e-010	-1.31552e-010	-1.31575e-010	-1.31526e-010	
FineR130	-1.31984e-010	-1.31929e-010	-1.31834e-010	-1.3174e-010	-1.31834e-010	-1.31795e-010	-1.31701e-010	-1.31567e-010	-1.31504e-010	-1.31661e-010	-1.31465e-010	-1.31622e-010	-1.31701e-010	-1.31504e-010	-1.31567e-010	-1.31528e-010	-1.31562e-010	-1.31661e-010	-1.31661e-010	-1.3148e-010	-1.31607e-010	-1.31607e-010	-1.31489e-010	-1.31567e-010	-1.3152e-010	-1.31504e-010	
FineR140	-1.31999e-010	-1.31944e-010	-1.3185e-010	-1.31756e-010	-1.3185e-010	-1.3185e-010	-1.31716e-010	-1.31617e-010	-1.31554e-010	-1.31622e-010	-1.31554e-010	-1.31617e-010	-1.3175e-010	-1.31554e-010	-1.31617e-010	-1.31528e-010	-1.31562e-010	-1.31677e-010	-1.31656e-010	-1.31569e-010	-1.31656e-010	-1.31622e-010	-1.31504e-010	-1.31622e-010	-1.31569e-010	-1.31554e-010	
FineR150	-1.31962e-010	-1.3196e-010	-1.31939e-010	-1.31805e-010	-1.31828e-010	-1.319e-010	-1.31805e-010	-1.31617e-010	-1.31554e-010	-1.31711e-010	-1.31569e-010	-1.31672e-010	-1.31805e-010	-1.31514e-010	-1.31632e-010	-1.31577e-010	-1.31577e-010	-1.31711e-010	-1.31672e-010	-1.31585e-010	-1.31711e-010	-1.31672e-010	-1.31554e-010	-1.31672e-010	-1.3153e-010	-1.31537e-010	
FineR160	-1.31978e-010	-1.31923e-010	-1.31883e-010	-1.31789e-010	-1.31883e-010	-1.31883e-010	-1.3175e-010	-1.31561e-010	-1.31553e-010	-1.31655e-010	-1.31569e-010	-1.31616e-010	-1.31695e-010	-1.31532e-010	-1.31577e-010	-1.31577e-010	-1.31611e-010	-1.31655e-010	-1.31655e-010	-1.31529e-010	-1.31655e-010	-1.31655e-010	-1.31498e-010	-1.31616e-010	-1.31514e-010	-1.31498e-010	
FineR170	-1.32033e-010	-1.31938e-010	-1.31938e-010	-1.31844e-010	-1.31899e-010	-1.31844e-010	-1.3175e-010	-1.31616e-010	-1.31514e-010	-1.3171e-010	-1.31514e-010	-1.31616e-010	-1.3171e-010	-1.31548e-010	-1.31577e-010	-1.31611e-010	-1.31577e-010	-1.31744e-010	-1.31616e-010	-1.31563e-010	-1.31671e-010	-1.31616e-010	-1.31569e-010	-1.31616e-010	-1.31569e-010	-1.31553e-010	
FineR180	-1.32033e-010	-1.31938e-010	-1.31938e-010	-1.31839e-010	-1.31899e-010	-1.31899e-010	-1.31839e-010	-1.31666e-010	-1.31603e-010	-1.3171e-010	-1.31569e-010	-1.31705e-010	-1.31765e-010	-1.31548e-010	-1.31632e-010	-1.31666e-010	-1.31666e-010	-1.31671e-010	-1.31671e-010	-1.31618e-010	-1.31671e-010	-1.31671e-010	-1.31587e-010	-1.31666e-010	-1.31563e-010	-1.31548e-010	
FineR190	-1.32082e-010	-1.31954e-010	-1.31988e-010	-1.31839e-010	-1.31933e-010	-1.31894e-010	-1.31799e-010	-1.31666e-010	-1.31603e-010	-1.3176e-010	-1.31603e-010	-1.31666e-010	-1.31799e-010	-1.31603e-010	-1.31626e-010	-1.31626e-010	-1.31626e-010	-1.31689e-010	-1.31649e-010	-1.31634e-010	-1.31689e-010	-1.31721e-010	-1.31603e-010	-1.31666e-010	-1.31618e-010	-1.31603e-010	
FineR200	-1.32011e-010	-1.32009e-010	-1.31917e-010	-1.31822e-010	-1.31877e-010	-1.31877e-010	-1.31838e-010	-1.31721e-010	-1.31547e-010	-1.31744e-010	-1.31618e-010	-1.31649e-010	-1.31783e-010	-1.31547e-010	-1.3161e-010	-1.3161e-010	-1.31681e-010	-1.31815e-010	-1.31649e-010	-1.31618e-010	-1.31744e-010	-1.31649e-010	-1.31531e-010	-1.31649e-010	-1.31618e-010	-1.31586e-010	
FineR210	-1.32066e-010	-1.31972e-010	-1.31972e-010	-1.31877e-010	-1.31932e-010	-1.31877e-010	-1.31783e-010	-1.31649e-010	-1.31586e-010	-1.31815e-010	-1.31547e-010	-1.31649e-010	-1.31783e-010	-1.31602e-010	-1.31665e-010	-1.3161e-010	-1.3161e-010	-1.31744e-010	-1.31744e-010	-1.31689e-010	-1.31704e-010	-1.31744e-010	-1.31586e-010	-1.31776e-010	-1.31673e-010	-1.31586e-010	
FineR220	-1.32066e-010	-1.32026e-010	-1.31972e-010	-1.31838e-010	-1.31932e-010	-1.31932e-010	-1.31838e-010	-1.31704e-010	-1.31602e-010	-1.31799e-010	-1.31636e-010	-1.31704e-010	-1.31799e-010	-1.31602e-010	-1.31665e-010	-1.31665e-010	-1.31665e-010	-1.31744e-010	-1.31744e-010	-1.31618e-010	-1.31744e-010	-1.31704e-010	-1.31586e-010	-1.31704e-010	-1.31657e-010	-1.31602e-010	
FineR230	-1.32121e-010	-1.32026e-010	-1.32026e-010	-1.31877e-010	-1.31932e-010	-1.31987e-010	-1.31893e-010	-1.31665e-010	-1.31602e-010	-1.31799e-010	-1.31602e-010	-1.31704e-010	-1.31838e-010	-1.31602e-010	-1.31665e-010	-1.31665e-010	-1.31665e-010	-1.31799e-010	-1.31744e-010	-1.31618e-010	-1.31744e-010	-1.31759e-010	-1.31641e-010	-1.31704e-010	-1.31657e-010	-1.31602e-010	
FineR240	-1.32121e-010	-1.32026e-010	-1.32026e-010	-1.31932e-010	-1.31987e-010	-1.31987e-010	-1.31893e-010	-1.3172e-010	-1.31696e-010	-1.31799e-010	-1.31602e-010	-1.31759e-010	-1.31893e-010	-1.31657e-010	-1.31704e-010	-1.31665e-010	-1.31665e-010	-1.31799e-010	-1.31799e-010	-1.31673e-010	-1.31759e-010	-1.31759e-010	-1.31641e-010	-1.31704e-010	-1.31657e-010	-1.31641e-010	
FineR250	-1.32121e-010	-1.32081e-010	-1.32026e-010	-1.31932e-010	-1.31987e-010	-1.31987e-010	-1.31893e-010	-1.31759e-010	-1.31657e-010	-1.31799e-010	-1.31657e-010	-1.31759e-010	-1.31893e-010	-1.31657e-010	-1.3172e-010	-1.31665e-010	-1.31665e-010	-1.31799e-010	-1.31799e-010	-1.31673e-010	-1.31799e-010	-1.31759e-010	-1.31641e-010	-1.3172e-010	-1.31673e-010	-1.31641e-010	
MinCout:	-1.31441e-010	FineR:	80	FineC:	130

	FineC210	FineC211	FineC212	FineC213	FineC214	FineC215	FineC216	FineC217	FineC218	FineC219	FineC220	FineC221	FineC222	FineC223	FineC224	FineC225	FineC226	FineC227	FineC228	FineC229	FineC230	
FineR0	-1.34243e-010	-1.34316e-010	-1.34371e-010	-1.34347e-010	-1.34172e-010	-1.34442e-010	-1.34387e-010	-1.34347e-010	-1.34387e-010	-1.34347e-010	-1.34347e-010	-1.34228e-010	-1.34188e-010	-1.34371e-010	-1.34411e-010	-1.34276e-010	-1.34371e-010	-1.34276e-010	-1.34276e-010	-1.34156e-010	-1.34371e-010	
FineR1	-1.33811e-010	-1.33976e-010	-1.34016e-010	-1.33882e-010	-1.33811e-010	-1.33976e-010	-1.33976e-010	-1.33915e-010	-1.33976e-010	-1.33953e-010	-1.33882e-010	-1.33796e-010	-1.33811e-010	-1.34016e-010	-1.34016e-010	-1.33882e-010	-1.34048e-010	-1.33953e-010	-1.33882e-010	-1.33833e-010	-1.34087e-010	
FineR2	-1.33619e-010	-1.33786e-010	-1.33786e-010	-1.33723e-010	-1.33619e-010	-1.33747e-010	-1.33747e-010	-1.33686e-010	-1.33747e-010	-1.33686e-010	-1.33652e-010	-1.33587e-010	-1.33582e-010	-1.3378e-010	-1.33747e-010	-1.33652e-010	-1.33747e-010	-1.33686e-010	-1.33686e-010	-1.33582e-010	-1.33747e-010	
FineR3	-1.33373e-010	-1.33612e-010	-1.33612e-010	-1.33477e-010	-1.33373e-010	-1.33612e-010	-1.33612e-010	-1.33477e-010	-1.33612e-010	-1.33477e-010	-1.33477e-010	-1.33358e-010	-1.33373e-010	-1.33612e-010	-1.33612e-010	-1.33477e-010	-1.33612e-010	-1.33477e-010	-1.33477e-010	-1.33358e-010	-1.33612e-010	
FineR4	-1.33168e-010	-1.33372e-010	-1.33372e-010	-1.33277e-010	-1.33168e-010	-1.33372e-010	-1.33406e-010	-1.33272e-010	-1.33372e-010	-1.33272e-010	-1.33272e-010	-1.33208e-010	-1.33168e-010	-1.33406e-010	-1.33406e-010	-1.33272e-010	-1.33406e-010	-1.33272e-010	-1.33311e-010	-1.33192e-010	-1.33372e-010	
FineR5	-1.33008e-010	-1.33212e-010	-1.33246e-010	-1.33112e-010	-1.33063e-010	-1.33173e-010	-1.33262e-010	-1.33238e-010	-1.33246e-010	-1.33167e-010	-1.33167e-010	-1.33048e-010	-1.33063e-010	-1.33207e-010	-1.33207e-010	-1.33127e-010	-1.33262e-010	-1.33167e-010	-1.33167e-010	-1.33008e-010	-1.33207e-010	
FineR6	-1.32904e-010	-1.33068e-010	-1.33157e-010	-1.33007e-010	-1.32904e-010	-1.33102e-010	-1.33102e-010	-1.33007e-010	-1.33102e-010	-1.33062e-010	-1.33007e-010	-1.32943e-010	-1.32904e-010	-1.33102e-010	-1.33102e-010	-1.33007e-010	-1.33068e-010	-1.33007e-010	-1.33007e-010	-1.32888e-010	-1.33123e-010	
FineR7	-1.32799e-010	-1.33003e-010	-1.33003e-010	-1.32908e-010	-1.32805e-010	-1.33003e-010	-1.33003e-010	-1.32869e-010	-1.33003e-010	-1.32869e-010	-1.32869e-010	-1.32789e-010	-1.32805e-010	-1.33003e-010	-1.33003e-010	-1.32908e-010	-1.33003e-010	-1.32869e-010	-1.32869e-010	-1.3275e-010	-1.33003e-010	
FineR8	-1.32669e-010	-1.32904e-010	-1.32938e-010	-1.32843e-010	-1.32629e-010	-1.32904e-010	-1.32867e-010	-1.32843e-010	-1.32867e-010	-1.32843e-010	-1.3281e-010	-1.32685e-010	-1.327e-010	-1.32904e-010	-1.32867e-010	-1.3281e-010	-1.32833e-010	-1.32733e-010	-1.32733e-010	-1.32685e-010	-1.32904e-010	
FineR9	-1.3257e-010	-1.32808e-010	-1.32753e-010	-1.32674e-010	-1.3257e-010	-1.32768e-010	-1.32768e-010	-1.32674e-010	-1.32768e-010	-1.32674e-010	-1.32674e-010	-1.32555e-010	-1.3257e-010	-1.32768e-010	-1.32768e-010	-1.32674e-010	-1.32808e-010	-1.32674e-010	-1.32674e-010	-1.3257e-010	-1.32808e-010	
FineR10	-1.32511e-010	-1.32678e-010	-1.32749e-010	-1.32544e-010	-1.3244e-010	-1.32638e-010	-1.32678e-010	-1.32544e-010	-1.32583e-010	-1.32544e-010	-1.32544e-010	-1.32425e-010	-1.32385e-010	-1.32678e-010	-1.32638e-010	-1.32544e-010	-1.32638e-010	-1.32615e-010	-1.3256e-010	-1.32425e-010	-1.32638e-010	
FineR11	-1.32381e-010	-1.32619e-010	-1.32619e-010	-1.32485e-010	-1.32381e-010	-1.32619e-010	-1.32619e-010	-1.32485e-010	-1.32579e-010	-1.32485e-010	-1.32485e-010	-1.32366e-010	-1.32381e-010	-1.32619e-010	-1.32619e-010	-1.32485e-010	-1.32619e-010	-1.32485e-010	-1.32485e-010	-1.32366e-010	-1.32619e-010	
FineR12	-1.32291e-010	-1.32495e-010	-1.32529e-010	-1.32394e-010	-1.32291e-010	-1.32455e-010	-1.32489e-010	-1.32394e-010	-1.32489e-010	-1.32394e-010	-1.32355e-010	-1.32236e-010	-1.32252e-010	-1.32489e-010	-1.32489e-010	-1.3236e-010	-1.32455e-010	-1.32394e-010	-1.32394e-010	-1.32236e-010	-1.32489e-010	
FineR13	-1.32201e-010	-1.32404e-010	-1.32404e-010	-1.3227e-010	-1.32167e-010	-1.32365e-010	-1.32436e-010	-1.3227e-010	-1.32365e-010	-1.32341e-010	-1.3227e-010	-1.32206e-010	-1.32167e-010	-1.32365e-010	-1.32404e-010	-1.3227e-010	-1.32365e-010	-1.3227e-010	-1.3227e-010	-1.32151e-010	-1.32365e-010	
FineR14	-1.32148e-010	-1.32406e-010	-1.32369e-010	-1.32235e-010	-1.32203e-010	-1.32274e-010	-1.32401e-010	-1.32235e-010	-1.32329e-010	-1.32306e-010	-1.32306e-010	-1.32187e-010	-1.32203e-010	-1.32329e-010	-1.32329e-010	-1.32235e-010	-1.32329e-010	-1.32235e-010	-1.32235e-010	-1.32116e-010	-1.32329e-010	
FineR15	-1.32079e-010	-1.32316e-010	-1.32316e-010	-1.3215e-010	-1.32118e-010	-1.32316e-010	-1.32316e-010	-1.32182e-010	-1.32316e-010	-1.32221e-010	-1.32221e-010	-1.32103e-010	-1.32118e-010	-1.32316e-010	-1.32316e-010	-1.32221e-010	-1.32316e-010	-1.32221e-010	-1.32182e-010	-1.32063e-010	-1.32316e-010	
FineR16	-1.32083e-010	-1.32265e-010	-1.32231e-010	-1.32137e-010	-1.32083e-010	-1.32231e-010	-1.32231e-010	-1.32192e-010	-1.32231e-010	-1.32131e-010	-1.32192e-010	-1.32068e-010	-1.32083e-010	-1.3232e-010	-1.3232e-010	-1.32152e-010	-1.32231e-010	-1.32186e-010	-1.32152e-010	-1.32073e-010	-1.32231e-010	
FineR17	-1.31999e-010	-1.32236e-010	-1.32236e-010	-1.32141e-010	-1.31999e-010	-1.32236e-010	-1.32236e-010	-1.32157e-010	-1.32236e-010	-1.32102e-010	-1.32102e-010	-1.32038e-010	-1.31999e-010	-1.32236e-010	-1.32236e-010	-1.32102e-010	-1.32236e-010	-1.32102e-010	-1.32102e-010	-1.32038e-010	-1.32236e-010	
FineR18	-1.32009e-010	-1.32206e-010	-1.32206e-010	-1.32112e-010	-1.31969e-010	-1.32151e-010	-1.32206e-010	-1.32072e-010	-1.32151e-010	-1.32057e-010	-1.32072e-010	-1.31954e-010	-1.32009e-010	-1.32206e-010	-1.32206e-010	-1.32072e-010	-1.32151e-010	-1.32072e-010	-1.32112e-010	-1.31954e-010	-1.32206e-010	
FineR19	-1.31924e-010	-1.32122e-010	-1.32161e-010	-1.32027e-010	-1.31924e-010	-1.32122e-010	-1.32122e-010	-1.32027e-010	-1.32161e-010	-1.32027e-010	-1.32027e-010	-1.31908e-010	-1.31924e-010	-1.32161e-010	-1.32122e-010	-1.32027e-010	-1.32122e-010	-1.32027e-010	-1.32027e-010	-1.31964e-010	-1.32122e-010	
FineR20	-1.31879e-010	-1.32076e-010	-1.32148e-010	-1.31982e-010	-1.31895e-010	-1.32076e-010	-1.32132e-010	-1.31997e-010	-1.32132e-010	-1.31997e-010	-1.31997e-010	-1.31879e-010	-1.31895e-010	-1.32132e-010	-1.32132e-010	-1.31997e-010	-1.32132e-010	-1.31997e-010	-1.31997e-010	-1.31879e-010	-1.32132e-010	
MinCout:	-1.31879e-010	FineR:	20	FineC:	210

