	CoarseC0	CoarseC10	CoarseC20	CoarseC30	CoarseC40	CoarseC50	CoarseC60	CoarseC70	CoarseC80	CoarseC90	CoarseC100	CoarseC110	CoarseC120	CoarseC130	CoarseC140	CoarseC150	CoarseC160	CoarseC170	CoarseC180	CoarseC190	CoarseC200	CoarseC210	CoarseC220	CoarseC230	CoarseC240	CoarseC250	
CoarseR0	-4.57467e-010	-4.2891e-010	-4.09085e-010	-3.93373e-010	-3.8078e-010	-3.70846e-010	-3.63115e-010	-3.57062e-010	-3.52236e-010	-3.48429e-010	-3.45358e-010	-3.43041e-010	-3.4112e-010	-3.39873e-010	-3.38879e-010	-3.38194e-010	-3.37904e-010	-3.38467e-010	-3.3946e-010	-3.40581e-010	-3.41611e-010	-3.42601e-010	-3.43483e-010	-3.44183e-010	-3.44646e-010	-3.45019e-010	
CoarseR10	-3.4071e-010	-3.15195e-010	-2.97302e-010	-2.83125e-010	-2.71851e-010	-2.62917e-010	-2.55712e-010	-2.4996e-010	-2.45472e-010	-2.41973e-010	-2.39431e-010	-2.37521e-010	-2.36709e-010	-2.37144e-010	-2.38064e-010	-2.39059e-010	-2.40379e-010	-2.4187e-010	-2.43557e-010	-2.45176e-010	-2.46796e-010	-2.48371e-010	-2.49979e-010	-2.51425e-010	-2.52848e-010	-2.54019e-010	
CoarseR20	-2.59598e-010	-2.36191e-010	-2.198e-010	-2.0683e-010	-1.96123e-010	-1.87732e-010	-1.80789e-010	-1.75508e-010	-1.71464e-010	-1.69076e-010	-1.68017e-010	-1.67738e-010	-1.6792e-010	-1.68711e-010	-1.69878e-010	-1.71317e-010	-1.73099e-010	-1.75122e-010	-1.77294e-010	-1.79665e-010	-1.82078e-010	-1.84474e-010	-1.86889e-010	-1.89439e-010	-1.92e-010	-1.94668e-010	
CoarseR30	-1.98698e-010	-1.76897e-010	-1.61368e-010	-1.48888e-010	-1.38674e-010	-1.30658e-010	-1.24297e-010	-1.20205e-010	-1.17522e-010	-1.15826e-010	-1.15063e-010	-1.149e-010	-1.1552e-010	-1.16652e-010	-1.18169e-010	-1.2016e-010	-1.2258e-010	-1.25178e-010	-1.2822e-010	-1.31473e-010	-1.34903e-010	-1.38732e-010	-1.42847e-010	-1.47735e-010	-1.53103e-010	-1.57935e-010	
CoarseR40	-1.51836e-010	-1.31136e-010	-1.16167e-010	-1.03921e-010	-9.40565e-011	-8.69107e-011	-8.18275e-011	-7.80397e-011	-7.56169e-011	-7.40941e-011	-7.35625e-011	-7.377e-011	-7.46509e-011	-7.61661e-011	-7.8356e-011	-8.08925e-011	-8.40966e-011	-8.76725e-011	-9.17301e-011	-9.64815e-011	-1.02236e-010	-1.09059e-010	-1.15509e-010	-1.21298e-010	-1.26469e-010	-1.30979e-010	
CoarseR50	-1.15126e-010	-9.50228e-011	-8.03864e-011	-6.85972e-011	-5.97336e-011	-5.30959e-011	-4.80295e-011	-4.43529e-011	-4.20821e-011	-4.08088e-011	-4.04345e-011	-4.09987e-011	-4.2348e-011	-4.4429e-011	-4.71605e-011	-5.06598e-011	-5.47855e-011	-5.98436e-011	-6.6501e-011	-7.44728e-011	-8.19181e-011	-8.85321e-011	-9.46818e-011	-9.99999e-011	-1.04928e-010	-1.09331e-010	
CoarseR60	-8.61209e-011	-6.62364e-011	-5.19e-011	-4.09097e-011	-3.23464e-011	-2.56426e-011	-2.0711e-011	-1.72816e-011	-1.50237e-011	-1.3932e-011	-1.40092e-011	-1.49458e-011	-1.67223e-011	-1.94909e-011	-2.30119e-011	-2.75849e-011	-3.35135e-011	-4.20557e-011	-5.06434e-011	-5.83324e-011	-6.53246e-011	-7.16542e-011	-7.73089e-011	-8.2429e-011	-8.71733e-011	-9.12664e-011	
CoarseR70	-6.24943e-011	-4.27085e-011	-2.88765e-011	-1.79884e-011	-9.37251e-012	-2.89903e-012	1.95251e-012	5.35229e-012	7.4395e-012	8.08544e-012	7.83765e-012	6.44285e-012	4.06972e-012	6.13192e-013	-4.11266e-012	-1.09802e-011	-2.03164e-011	-2.91054e-011	-3.71174e-011	-4.43764e-011	-5.09475e-011	-5.69827e-011	-6.24718e-011	-6.72891e-011	-7.18093e-011	-7.58666e-011	
CoarseR80	-4.28713e-011	-2.35466e-011	-9.69943e-012	1.26562e-012	9.82809e-012	1.64244e-011	2.11593e-011	2.42696e-011	2.62146e-011	2.66496e-011	2.60015e-011	2.41485e-011	2.1099e-011	1.66925e-011	9.43691e-012	-1.62366e-013	-9.23907e-012	-1.75485e-011	-2.51607e-011	-3.20731e-011	-3.8376e-011	-4.40696e-011	-4.93558e-011	-5.40366e-011	-5.83655e-011	-6.23132e-011	
CoarseR90	-2.67237e-011	-7.37627e-012	6.4116e-012	1.748e-011	2.61879e-011	3.27257e-011	3.72785e-011	4.04208e-011	4.20583e-011	4.23057e-011	4.12507e-011	3.89844e-011	3.50318e-011	2.84741e-011	1.85143e-011	9.32375e-012	7.10183e-013	-7.2002e-012	-1.4504e-011	-2.10465e-011	-2.70941e-011	-3.26767e-011	-3.77795e-011	-4.23154e-011	-4.65355e-011	-5.03053e-011	
CoarseR100	-1.29697e-011	6.49723e-012	2.05279e-011	3.15565e-011	4.01555e-011	4.66179e-011	5.12376e-011	5.42205e-011	5.56553e-011	5.57589e-011	5.4289e-011	5.14243e-011	4.61163e-011	3.66446e-011	2.69915e-011	1.81328e-011	9.96735e-012	2.30903e-012	-4.59771e-012	-1.10437e-011	-1.68653e-011	-2.2151e-011	-2.71013e-011	-3.15473e-011	-3.56972e-011	-3.93262e-011	
CoarseR110	-1.40618e-012	1.82761e-011	3.23858e-011	4.34468e-011	5.21404e-011	5.85762e-011	6.32233e-011	6.61452e-011	6.74631e-011	6.72567e-011	6.54709e-011	6.17458e-011	5.37717e-011	4.40454e-011	3.48379e-011	2.63415e-011	1.84639e-011	1.10982e-011	4.40362e-012	-1.78479e-012	-7.46934e-012	-1.27155e-011	-1.74885e-011	-2.18177e-011	-2.58163e-011	-2.94933e-011	
CoarseR120	8.31163e-012	2.82418e-011	4.24391e-011	5.36098e-011	6.23069e-011	6.87299e-011	7.33541e-011	7.62167e-011	7.7435e-011	7.7089e-011	7.5003e-011	7.00356e-011	6.03087e-011	5.10116e-011	4.21586e-011	3.39095e-011	2.6334e-011	1.92552e-011	1.26951e-011	6.70397e-012	1.12468e-012	-3.92476e-012	-8.67787e-012	-1.29169e-011	-1.68164e-011	-2.05032e-011	
CoarseR130	1.6692e-011	3.66772e-011	5.09815e-011	6.21481e-011	7.09684e-011	7.74805e-011	8.22491e-011	8.50941e-011	8.61856e-011	8.56746e-011	8.3194e-011	7.62205e-011	6.65927e-011	5.75635e-011	4.89775e-011	4.10873e-011	3.37571e-011	2.68423e-011	2.03865e-011	1.44781e-011	9.09453e-012	4.09495e-012	-5.23041e-013	-4.71425e-012	-8.666e-012	-1.23519e-011	
CoarseR140	2.3505e-011	4.37576e-011	5.82196e-011	6.9584e-011	7.84566e-011	8.50669e-011	8.97515e-011	9.26897e-011	9.38577e-011	9.3281e-011	9.01871e-011	8.18923e-011	7.25413e-011	6.38472e-011	5.55974e-011	4.78079e-011	4.06111e-011	3.38627e-011	2.75682e-011	2.18582e-011	1.64866e-011	1.16223e-011	6.98493e-012	2.80308e-012	-1.08407e-012	-4.68403e-012	
CoarseR150	2.92813e-011	4.97563e-011	6.43096e-011	7.57308e-011	8.48623e-011	9.15931e-011	9.6398e-011	9.93551e-011	1.00535e-010	9.98567e-011	9.62717e-011	8.72905e-011	7.8215e-011	6.97683e-011	6.16296e-011	5.41313e-011	4.71236e-011	4.05126e-011	3.43774e-011	2.86511e-011	2.3272e-011	1.85653e-011	1.40205e-011	9.81456e-012	5.9474e-012	2.41398e-012	
CoarseR160	3.39844e-011	5.45982e-011	6.93543e-011	8.10476e-011	9.03439e-011	9.71196e-011	1.02102e-010	1.05037e-010	1.06365e-010	1.05615e-010	1.01482e-010	9.24462e-011	8.35923e-011	7.52818e-011	6.73901e-011	5.99679e-011	5.31029e-011	4.65999e-011	4.05303e-011	3.48874e-011	2.97086e-011	2.48547e-011	2.04782e-011	1.6247e-011	1.23347e-011	8.78522e-012	
CoarseR170	3.76794e-011	5.86063e-011	7.34797e-011	8.5417e-011	9.4748e-011	1.01803e-010	1.06862e-010	1.10132e-010	1.11449e-010	1.10837e-010	1.06265e-010	9.7192e-011	8.86138e-011	8.05452e-011	7.27744e-011	6.55306e-011	5.8664e-011	5.22077e-011	4.62857e-011	4.07311e-011	3.55797e-011	3.06511e-011	2.61835e-011	2.20847e-011	1.83305e-011	1.48288e-011	
CoarseR180	4.0722e-011	6.18013e-011	7.69894e-011	8.90412e-011	9.85939e-011	1.05774e-010	1.11049e-010	1.14469e-010	1.15971e-010	1.15534e-010	1.10593e-010	1.01872e-010	9.34152e-011	8.54298e-011	7.78173e-011	7.07102e-011	6.39217e-011	5.76119e-011	5.16195e-011	4.61403e-011	4.09361e-011	3.6243e-011	3.17307e-011	2.75671e-011	2.37738e-011	2.01931e-011	
CoarseR190	4.2928e-011	6.43588e-011	7.97423e-011	9.19365e-011	1.01702e-010	1.09131e-010	1.14577e-010	1.18134e-010	1.19872e-010	1.1953e-010	1.14872e-010	1.0614e-010	9.79151e-011	9.00186e-011	8.24943e-011	7.53988e-011	6.87884e-011	6.25226e-011	5.66473e-011	5.10668e-011	4.58807e-011	4.11665e-011	3.67645e-011	3.2603e-011	2.87292e-011	2.51373e-011	
CoarseR200	4.46193e-011	6.62434e-011	8.18526e-011	9.42407e-011	1.04244e-010	1.1188e-010	1.17582e-010	1.21432e-010	1.23321e-010	1.23177e-010	1.18708e-010	1.10209e-010	1.02069e-010	9.42737e-011	8.68366e-011	7.97771e-011	7.3201e-011	6.68962e-011	6.10826e-011	5.56261e-011	5.04143e-011	4.57493e-011	4.12404e-011	3.71573e-011	3.32715e-011	2.97107e-011	
CoarseR210	4.57597e-011	6.7585e-011	8.35206e-011	9.62048e-011	1.06346e-010	1.14168e-010	1.20056e-010	1.24122e-010	1.2628e-010	1.2638e-010	1.22324e-010	1.13947e-010	1.05824e-010	9.82642e-011	9.08142e-011	8.38902e-011	7.72187e-011	7.1071e-011	6.51594e-011	5.97508e-011	5.46083e-011	4.97887e-011	4.53793e-011	4.13252e-011	3.73416e-011	3.37293e-011	
CoarseR220	4.64661e-011	6.85495e-011	8.46028e-011	9.74763e-011	1.07928e-010	1.16022e-010	1.22097e-010	1.26287e-010	1.2867e-010	1.29148e-010	1.25665e-010	1.17424e-010	1.09504e-010	1.01809e-010	9.44638e-011	8.75871e-011	8.10362e-011	7.47593e-011	6.88853e-011	6.34979e-011	5.83355e-011	5.36833e-011	4.91484e-011	4.495e-011	4.10026e-011	3.73811e-011	
CoarseR230	4.68303e-011	6.91433e-011	8.55186e-011	9.8479e-011	1.09136e-010	1.17386e-010	1.23629e-010	1.28132e-010	1.30731e-010	1.31446e-010	1.28625e-010	1.20646e-010	1.12772e-010	1.0515e-010	9.78517e-011	9.09018e-011	8.43645e-011	7.81086e-011	7.23052e-011	6.67908e-011	6.16138e-011	5.68755e-011	5.23974e-011	4.81692e-011	4.428e-011	4.06953e-011	
CoarseR240	4.68487e-011	6.93829e-011	8.58754e-011	9.90969e-011	1.09982e-010	1.18325e-010	1.24897e-010	1.29492e-010	1.32437e-010	1.33362e-010	1.31208e-010	1.23436e-010	1.15554e-010	1.08109e-010	1.00888e-010	9.3889e-011	8.7373e-011	8.10933e-011	7.52388e-011	6.97967e-011	6.46376e-011	5.98886e-011	5.52945e-011	5.10569e-011	4.70522e-011	4.3479e-011	
CoarseR250	4.66352e-011	6.93041e-011	8.59398e-011	9.95096e-011	1.10497e-010	1.19052e-010	1.25865e-010	1.30729e-010	1.33749e-010	1.34978e-010	1.33484e-010	1.2605e-010	1.18227e-010	1.10678e-010	1.03486e-010	9.65602e-011	8.99922e-011	8.38018e-011	7.78014e-011	7.23418e-011	6.72468e-011	6.23433e-011	5.78176e-011	5.36253e-011	4.96115e-011	4.59222e-011	
MinCout:	-1.62366e-013	CoarseR:	80	CoarseC:	150

	CoarseC50	CoarseC51	CoarseC52	CoarseC53	CoarseC54	CoarseC55	CoarseC56	CoarseC57	CoarseC58	CoarseC59	CoarseC60	CoarseC61	CoarseC62	CoarseC63	CoarseC64	CoarseC65	CoarseC66	CoarseC67	CoarseC68	CoarseC69	CoarseC70	
CoarseR60	-2.54946e-011	-2.49809e-011	-2.43591e-011	-2.37827e-011	-2.32841e-011	-2.28592e-011	-2.23734e-011	-2.18858e-011	-2.14105e-011	-2.10619e-011	-2.05655e-011	-2.01694e-011	-1.97127e-011	-1.93112e-011	-1.89677e-011	-1.86463e-011	-1.8251e-011	-1.78382e-011	-1.76271e-011	-1.727e-011	-1.69393e-011	
CoarseR61	-2.29937e-011	-2.24672e-011	-2.19081e-011	-2.13329e-011	-2.08402e-011	-2.03184e-011	-1.98954e-011	-1.94527e-011	-1.89811e-011	-1.85328e-011	-1.8085e-011	-1.76497e-011	-1.73395e-011	-1.69593e-011	-1.65583e-011	-1.62437e-011	-1.58948e-011	-1.54427e-011	-1.51345e-011	-1.48201e-011	-1.46544e-011	
CoarseR62	-2.05615e-011	-2.00385e-011	-1.9384e-011	-1.88535e-011	-1.84835e-011	-1.79664e-011	-1.74272e-011	-1.70488e-011	-1.65204e-011	-1.60361e-011	-1.56494e-011	-1.52602e-011	-1.48529e-011	-1.44734e-011	-1.41646e-011	-1.38104e-011	-1.33793e-011	-1.30742e-011	-1.27694e-011	-1.24189e-011	-1.21959e-011	
CoarseR63	-1.82318e-011	-1.76687e-011	-1.71011e-011	-1.65935e-011	-1.60229e-011	-1.55507e-011	-1.51182e-011	-1.45824e-011	-1.4134e-011	-1.37376e-011	-1.32515e-011	-1.28655e-011	-1.25802e-011	-1.21889e-011	-1.17796e-011	-1.14287e-011	-1.10441e-011	-1.07023e-011	-1.04586e-011	-1.01544e-011	-9.87726e-012	
CoarseR64	-1.59267e-011	-1.53276e-011	-1.46624e-011	-1.41584e-011	-1.37766e-011	-1.32665e-011	-1.27362e-011	-1.2323e-011	-1.18015e-011	-1.14673e-011	-1.09847e-011	-1.06023e-011	-1.01588e-011	-9.83167e-012	-9.42567e-012	-9.03465e-012	-8.74017e-012	-8.45981e-012	-8.10379e-012	-7.81776e-012	-7.56036e-012	
CoarseR65	-1.3626e-011	-1.31306e-011	-1.25708e-011	-1.19506e-011	-1.15063e-011	-1.10061e-011	-1.05142e-011	-1.00272e-011	-9.58666e-012	-9.19696e-012	-8.7193e-012	-8.32283e-012	-8.00155e-012	-7.55884e-012	-7.17361e-012	-6.87013e-012	-6.43434e-012	-6.20048e-012	-5.86254e-012	-5.56497e-012	-5.25122e-012	
CoarseR66	-1.13524e-011	-1.07408e-011	-1.01445e-011	-9.68916e-012	-9.17144e-012	-8.66782e-012	-8.16159e-012	-7.72035e-012	-7.22467e-012	-6.79586e-012	-6.36304e-012	-6.00517e-012	-5.61128e-012	-5.23075e-012	-4.89234e-012	-4.55078e-012	-4.22001e-012	-3.84309e-012	-3.49328e-012	-3.25865e-012	-3.00751e-012	
CoarseR67	-9.12391e-012	-8.51583e-012	-7.92227e-012	-7.47068e-012	-6.95652e-012	-6.45701e-012	-5.99656e-012	-5.57678e-012	-5.0243e-012	-4.5989e-012	-4.18698e-012	-3.71295e-012	-3.38273e-012	-3.10749e-012	-2.71348e-012	-2.4347e-012	-1.98842e-012	-1.67559e-012	-1.37342e-012	-1.03964e-012	-7.91717e-013	
CoarseR68	-6.94173e-012	-6.3371e-012	-5.84958e-012	-5.29914e-012	-4.74583e-012	-4.29196e-012	-3.83517e-012	-3.29899e-012	-2.91273e-012	-2.49074e-012	-1.98015e-012	-1.6549e-012	-1.28345e-012	-9.11086e-013	-5.77862e-013	-3.02856e-013	7.86419e-014	5.07207e-013	7.91956e-013	1.07794e-012	1.3661e-012	
CoarseR69	-4.84726e-012	-4.24627e-012	-3.66068e-012	-3.1738e-012	-2.66634e-012	-2.15609e-012	-1.66031e-012	-1.24727e-012	-7.02651e-013	-3.86381e-013	1.87192e-014	5.45956e-013	8.69516e-013	1.22409e-012	1.50989e-012	1.9002e-012	2.26472e-012	2.58529e-012	2.92573e-012	3.20831e-012	3.45017e-012	
CoarseR70	-2.69971e-012	-2.20391e-012	-1.57945e-012	-1.03604e-012	-5.31939e-013	-2.5028e-014	3.64464e-013	8.77256e-013	1.33281e-012	1.79052e-012	2.19216e-012	2.57058e-012	2.93372e-012	3.34419e-012	3.66965e-012	3.95448e-012	4.41655e-012	4.67592e-012	4.96846e-012	5.29254e-012	5.48624e-012	
CoarseR71	-7.02012e-013	-1.67884e-013	4.70867e-013	9.68903e-013	1.40905e-012	1.91252e-012	2.50432e-012	2.91082e-012	3.34545e-012	3.86095e-012	4.21585e-012	4.63334e-012	4.89058e-012	5.35744e-012	5.67965e-012	5.96125e-012	6.31746e-012	6.67595e-012	6.96529e-012	7.28614e-012	7.4767e-012	
CoarseR72	1.36779e-012	1.9585e-012	2.53387e-012	3.0282e-012	3.48275e-012	3.94744e-012	4.45042e-012	4.9562e-012	5.44791e-012	5.79655e-012	6.20794e-012	6.60583e-012	6.97863e-012	7.27919e-012	7.59807e-012	8.02221e-012	8.37485e-012	8.7471e-012	8.97368e-012	9.29035e-012	9.52096e-012	
CoarseR73	3.34677e-012	3.97627e-012	4.50547e-012	5.03878e-012	5.42977e-012	6.01171e-012	6.51118e-012	6.85022e-012	7.44122e-012	7.84694e-012	8.19463e-012	8.54515e-012	9.06292e-012	9.41895e-012	9.6315e-012	1.00095e-011	1.04017e-011	1.06653e-011	1.09767e-011	1.12456e-011	1.15348e-011	
CoarseR74	5.37985e-012	5.96337e-012	6.47005e-012	6.99996e-012	7.44879e-012	7.92357e-012	8.4623e-012	8.85858e-012	9.28179e-012	9.74431e-012	1.02357e-011	1.06003e-011	1.095e-011	1.13472e-011	1.17198e-011	1.19897e-011	1.23952e-011	1.26404e-011	1.29631e-011	1.32137e-011	1.34976e-011	
CoarseR75	7.2154e-012	7.83775e-012	8.4034e-012	8.88581e-012	9.41643e-012	9.84499e-012	1.03376e-011	1.07731e-011	1.12971e-011	1.16958e-011	1.20365e-011	1.24413e-011	1.28924e-011	1.31986e-011	1.34476e-011	1.39228e-011	1.42648e-011	1.45669e-011	1.48432e-011	1.51485e-011	1.53261e-011	
CoarseR76	9.20779e-012	9.72448e-012	1.0285e-011	1.0808e-011	1.13528e-011	1.18218e-011	1.2311e-011	1.27005e-011	1.32199e-011	1.35723e-011	1.3953e-011	1.43373e-011	1.48015e-011	1.51647e-011	1.54533e-011	1.57184e-011	1.61603e-011	1.65022e-011	1.67752e-011	1.70338e-011	1.72975e-011	
CoarseR77	1.10026e-011	1.15774e-011	1.21769e-011	1.26964e-011	1.32379e-011	1.35994e-011	1.41893e-011	1.46181e-011	1.49873e-011	1.53804e-011	1.58167e-011	1.61542e-011	1.65543e-011	1.69419e-011	1.73482e-011	1.76709e-011	1.79457e-011	1.82556e-011	1.85686e-011	1.88697e-011	1.90842e-011	
CoarseR78	1.28698e-011	1.33171e-011	1.39749e-011	1.44909e-011	1.49859e-011	1.54479e-011	1.59123e-011	1.63993e-011	1.68689e-011	1.72574e-011	1.76317e-011	1.80258e-011	1.84237e-011	1.88071e-011	1.91222e-011	1.9513e-011	1.9799e-011	2.00909e-011	2.04007e-011	2.07157e-011	2.09271e-011	
CoarseR79	1.47051e-011	1.52115e-011	1.58232e-011	1.62926e-011	1.68104e-011	1.72245e-011	1.78079e-011	1.81276e-011	1.86805e-011	1.90231e-011	1.94541e-011	1.9845e-011	2.024e-011	2.05152e-011	2.08723e-011	2.11709e-011	2.15151e-011	2.19069e-011	2.21992e-011	2.24045e-011	2.27167e-011	
CoarseR80	1.64679e-011	1.703e-011	1.74737e-011	1.79829e-011	1.85137e-011	1.90128e-011	1.94446e-011	1.99252e-011	2.03258e-011	2.08566e-011	2.11815e-011	2.15691e-011	2.1961e-011	2.23969e-011	2.2691e-011	2.29863e-011	2.33286e-011	2.36114e-011	2.39616e-011	2.42067e-011	2.44117e-011	
MinCout:	1.87192e-014	CoarseR:	69	CoarseC:	60

	FineC0	FineC10	FineC20	FineC30	FineC40	FineC50	FineC60	FineC70	FineC80	FineC90	FineC100	FineC110	FineC120	FineC130	FineC140	FineC150	FineC160	FineC170	FineC180	FineC190	FineC200	FineC210	FineC220	FineC230	FineC240	FineC250	
FineR0	-3.56111e-011	-2.50144e-011	-1.86986e-011	-1.41989e-011	-1.0995e-011	-8.40584e-012	-6.46037e-012	-4.91659e-012	-3.64432e-012	-2.66868e-012	-1.73152e-012	-1.07704e-012	-5.27511e-013	8.52092e-014	4.69682e-013	9.15831e-013	1.21758e-012	1.47718e-012	1.69434e-012	1.88574e-012	2.12058e-012	2.31218e-012	2.44432e-012	2.6096e-012	2.69847e-012	2.70029e-012	
FineR10	-3.56488e-011	-2.50533e-011	-1.8617e-011	-1.41792e-011	-1.09749e-011	-8.48647e-012	-6.50178e-012	-4.91716e-012	-3.68621e-012	-2.69205e-012	-1.81564e-012	-1.1194e-012	-5.09873e-013	0	4.87119e-013	8.30257e-013	1.17471e-012	1.43424e-012	1.7115e-012	1.88574e-012	2.07746e-012	2.20924e-012	2.35789e-012	2.50662e-012	2.55171e-012	2.71704e-012	
FineR20	-3.56488e-011	-2.51522e-011	-1.86769e-011	-1.42392e-011	-1.09556e-011	-8.48647e-012	-6.44129e-012	-4.95883e-012	-3.74628e-012	-2.69256e-012	-1.87608e-012	-1.16177e-012	-5.09873e-013	0	4.87119e-013	8.9035e-013	1.17471e-012	1.4512e-012	1.66819e-012	1.84267e-012	2.07746e-012	2.20924e-012	2.35789e-012	2.56678e-012	2.61188e-012	2.71712e-012	
FineR30	-3.56488e-011	-2.50303e-011	-1.87166e-011	-1.42016e-011	-1.09556e-011	-8.48647e-012	-6.44129e-012	-4.95883e-012	-3.72809e-012	-2.73411e-012	-1.81598e-012	-1.10159e-012	-5.70096e-013	6.01278e-014	3.84285e-013	8.9035e-013	1.13184e-012	1.45145e-012	1.66849e-012	1.84267e-012	2.03434e-012	2.22614e-012	2.41796e-012	2.50662e-012	2.67195e-012	2.71749e-012	
FineR40	-3.56865e-011	-2.50904e-011	-1.87166e-011	-1.42418e-011	-1.09769e-011	-8.42744e-012	-6.4827e-012	-5.0005e-012	-3.66777e-012	-2.69256e-012	-1.81586e-012	-1.20414e-012	-4.92213e-013	1.75232e-014	3.84285e-013	8.30362e-013	1.19192e-012	1.45145e-012	1.72856e-012	1.84267e-012	2.0944e-012	2.22614e-012	2.37474e-012	2.46336e-012	2.56849e-012	2.71749e-012	
FineR50	-3.56865e-011	-2.50904e-011	-1.86566e-011	-1.42184e-011	-1.10177e-011	-8.42744e-012	-6.50253e-012	-5.0005e-012	-3.72783e-012	-2.69256e-012	-1.81586e-012	-1.14395e-012	-5.09935e-013	1.75232e-014	3.84285e-013	8.30404e-013	1.13184e-012	1.3913e-012	1.72856e-012	1.85968e-012	2.07773e-012	2.22614e-012	2.37474e-012	2.46336e-012	2.61222e-012	2.71749e-012	
FineR60	-3.56237e-011	-2.50904e-011	-1.87166e-011	-1.41808e-011	-1.09569e-011	-8.42744e-012	-6.4827e-012	-5.0005e-012	-3.66777e-012	-2.69237e-012	-1.91831e-012	-1.14395e-012	-5.09969e-013	1.75232e-014	4.44418e-013	8.30362e-013	1.19192e-012	1.45145e-012	1.6254e-012	1.79961e-012	2.03425e-012	2.22614e-012	2.37474e-012	2.52343e-012	2.61222e-012	2.71749e-012	
FineR70	-3.56525e-011	-2.50949e-011	-1.87166e-011	-1.41808e-011	-1.09569e-011	-8.42744e-012	-6.50253e-012	-5.0005e-012	-3.76972e-012	-2.79471e-012	-1.85809e-012	-1.14395e-012	-5.5243e-013	0	4.87202e-013	8.30362e-013	1.14905e-012	1.45138e-012	1.68555e-012	1.90307e-012	2.07773e-012	2.22614e-012	2.41837e-012	2.46336e-012	2.62865e-012	2.71749e-012	
FineR80	-3.56865e-011	-2.50949e-011	-1.87166e-011	-1.42418e-011	-1.10177e-011	-8.42744e-012	-6.54395e-012	-5.0005e-012	-3.76972e-012	-2.73463e-012	-1.85809e-012	-1.14395e-012	-5.5243e-013	1.75232e-014	4.27063e-013	8.30362e-013	1.19192e-012	1.45145e-012	1.6254e-012	1.90307e-012	2.0346e-012	2.22614e-012	2.41837e-012	2.52343e-012	2.61222e-012	2.73423e-012	
FineR90	-3.56299e-011	-2.50949e-011	-1.86552e-011	-1.41808e-011	-1.09569e-011	-8.42744e-012	-6.54395e-012	-5.0005e-012	-3.72783e-012	-2.63229e-012	-1.85809e-012	-1.14395e-012	-5.5243e-013	0	4.87182e-013	8.30362e-013	1.14905e-012	1.45138e-012	1.6254e-012	1.90307e-012	2.0346e-012	2.18297e-012	2.37474e-012	2.46336e-012	2.56849e-012	2.71749e-012	
FineR100	-3.5655e-011	-2.50949e-011	-1.87563e-011	-1.41808e-011	-1.10177e-011	-8.46855e-012	-6.54395e-012	-5.0005e-012	-3.76972e-012	-2.73463e-012	-1.91831e-012	-1.14395e-012	-5.5243e-013	1.75232e-014	4.27063e-013	8.30362e-013	1.19213e-012	1.40844e-012	1.6254e-012	1.90307e-012	2.09476e-012	2.22614e-012	2.37474e-012	2.46336e-012	2.61222e-012	2.71749e-012	
FineR110	-3.56865e-011	-2.51292e-011	-1.87166e-011	-1.42418e-011	-1.10177e-011	-8.42744e-012	-6.44251e-012	-5.0005e-012	-3.70966e-012	-2.73463e-012	-1.85809e-012	-1.14395e-012	-5.5243e-013	1.75232e-014	4.27063e-013	8.30362e-013	1.14905e-012	1.40851e-012	1.68555e-012	1.79961e-012	2.05128e-012	2.22614e-012	2.37474e-012	2.46336e-012	2.61222e-012	2.67415e-012	
FineR120	-3.56237e-011	-2.50949e-011	-1.87563e-011	-1.41808e-011	-1.09569e-011	-8.42744e-012	-6.54395e-012	-5.0005e-012	-3.76972e-012	-2.73444e-012	-1.85809e-012	-1.14395e-012	-5.5243e-013	-4.26018e-014	4.87182e-013	8.30362e-013	1.19213e-012	1.40844e-012	1.6254e-012	1.90307e-012	2.0346e-012	2.22614e-012	2.37474e-012	2.46336e-012	2.61222e-012	2.67415e-012	
FineR130	-3.56865e-011	-2.50949e-011	-1.86949e-011	-1.42211e-011	-1.10177e-011	-8.42744e-012	-6.44251e-012	-5.0005e-012	-3.70966e-012	-2.79471e-012	-1.85809e-012	-1.14395e-012	-5.5243e-013	-4.26018e-014	4.44418e-013	8.30362e-013	1.14905e-012	1.45145e-012	1.68555e-012	1.90307e-012	2.05128e-012	2.22614e-012	2.37474e-012	2.46336e-012	2.58535e-012	2.67415e-012	
FineR140	-3.5655e-011	-2.50949e-011	-1.87166e-011	-1.41808e-011	-1.10177e-011	-8.52917e-012	-6.48393e-012	-5.0005e-012	-3.76998e-012	-2.73463e-012	-1.91831e-012	-1.14395e-012	-4.92314e-013	0	4.44492e-013	8.30362e-013	1.14905e-012	1.34836e-012	1.6254e-012	1.79961e-012	2.0346e-012	2.22614e-012	2.37474e-012	2.46336e-012	2.61222e-012	2.71749e-012	
FineR150	-3.56299e-011	-2.51292e-011	-1.87166e-011	-1.41808e-011	-1.10177e-011	-8.52917e-012	-6.54395e-012	-5.0005e-012	-3.83005e-012	-2.67436e-012	-1.85809e-012	-1.14395e-012	-6.1259e-013	1.75232e-014	4.44418e-013	8.30362e-013	1.14905e-012	1.45145e-012	1.66849e-012	1.79961e-012	2.0944e-012	2.22614e-012	2.37474e-012	2.52343e-012	2.61222e-012	2.67415e-012	
FineR160	-3.55923e-011	-2.50949e-011	-1.87563e-011	-1.42211e-011	-1.09569e-011	-8.46855e-012	-6.54395e-012	-5.0005e-012	-3.76972e-012	-2.73444e-012	-1.85809e-012	-1.14395e-012	-5.52466e-013	0	4.87202e-013	8.90499e-013	1.08897e-012	1.40851e-012	1.68555e-012	1.90307e-012	2.0346e-012	2.18297e-012	2.41837e-012	2.46336e-012	2.62865e-012	2.71749e-012	
FineR170	-3.56865e-011	-2.51311e-011	-1.87166e-011	-1.41808e-011	-1.10177e-011	-8.46855e-012	-6.54395e-012	-5.0005e-012	-3.76972e-012	-2.79471e-012	-1.85809e-012	-1.14395e-012	-5.5243e-013	1.75232e-014	3.84285e-013	8.30362e-013	1.14905e-012	1.40844e-012	1.6254e-012	1.90307e-012	2.0346e-012	2.18297e-012	2.41837e-012	2.52343e-012	2.56849e-012	2.71749e-012	
FineR180	-3.57242e-011	-2.50692e-011	-1.86963e-011	-1.42418e-011	-1.10177e-011	-8.52917e-012	-6.58412e-012	-5.0005e-012	-3.76972e-012	-2.73463e-012	-1.85809e-012	-1.14395e-012	-5.5243e-013	6.01306e-014	4.87202e-013	8.30362e-013	1.19213e-012	1.40851e-012	1.6254e-012	1.90307e-012	2.0346e-012	2.18297e-012	2.37474e-012	2.46336e-012	2.61222e-012	2.67415e-012	
FineR190	-3.55923e-011	-2.50949e-011	-1.87166e-011	-1.42418e-011	-1.09577e-011	-8.46855e-012	-6.48393e-012	-5.0005e-012	-3.76972e-012	-2.73444e-012	-1.85809e-012	-1.14395e-012	-5.5243e-013	0	4.27063e-013	8.30362e-013	1.19213e-012	1.34836e-012	1.6254e-012	1.90307e-012	2.0346e-012	2.18297e-012	2.37474e-012	2.46336e-012	2.67239e-012	2.71749e-012	
FineR200	-3.56865e-011	-2.51311e-011	-1.87563e-011	-1.42821e-011	-1.10177e-011	-8.52917e-012	-6.54395e-012	-5.0005e-012	-3.83005e-012	-2.67436e-012	-1.85809e-012	-1.14395e-012	-5.5243e-013	1.75232e-014	4.27063e-013	8.30362e-013	1.14905e-012	1.40844e-012	1.6254e-012	1.90307e-012	2.0346e-012	2.22614e-012	2.37474e-012	2.52343e-012	2.61222e-012	2.67415e-012	
FineR210	-3.56237e-011	-2.50949e-011	-1.87166e-011	-1.41808e-011	-1.09569e-011	-8.52917e-012	-6.54395e-012	-5.0005e-012	-3.76972e-012	-2.69288e-012	-1.85809e-012	-1.14395e-012	-5.5243e-013	0	4.87182e-013	8.30362e-013	1.14905e-012	1.40844e-012	1.6254e-012	1.90307e-012	2.0346e-012	2.18297e-012	2.37514e-012	2.52343e-012	2.61222e-012	2.67415e-012	
FineR220	-3.56299e-011	-2.50949e-011	-1.86587e-011	-1.41808e-011	-1.09569e-011	-8.46855e-012	-6.54395e-012	-4.94103e-012	-3.72853e-012	-2.69288e-012	-1.85809e-012	-1.14395e-012	-5.5243e-013	0	4.27063e-013	8.30362e-013	1.19213e-012	1.40844e-012	1.68555e-012	1.90307e-012	2.0346e-012	2.18297e-012	2.41837e-012	2.52343e-012	2.67239e-012	2.67415e-012	
FineR230	-3.56237e-011	-2.50949e-011	-1.86949e-011	-1.42211e-011	-1.09569e-011	-8.46855e-012	-6.54395e-012	-4.95976e-012	-3.76972e-012	-2.69288e-012	-1.85809e-012	-1.14395e-012	-5.5243e-013	0	4.87182e-013	8.30362e-013	1.19213e-012	1.34836e-012	1.6254e-012	1.90307e-012	2.0346e-012	2.18297e-012	2.37514e-012	2.52385e-012	2.629e-012	2.67415e-012	
FineR240	-3.56299e-011	-2.50949e-011	-1.86949e-011	-1.42211e-011	-1.09182e-011	-8.46855e-012	-6.54395e-012	-5.00144e-012	-3.76972e-012	-2.69288e-012	-1.85809e-012	-1.14395e-012	-5.5243e-013	-4.26098e-014	4.44475e-013	7.8757e-013	1.19213e-012	1.40844e-012	1.68555e-012	1.90307e-012	2.0346e-012	2.18297e-012	2.37514e-012	2.52343e-012	2.61222e-012	2.67415e-012	
FineR250	-3.56299e-011	-2.50949e-011	-1.86949e-011	-1.42211e-011	-1.09569e-011	-8.46855e-012	-6.54395e-012	-5.0005e-012	-3.76972e-012	-2.67436e-012	-1.85809e-012	-1.14395e-012	-5.5243e-013	0	4.87182e-013	8.30362e-013	1.14905e-012	1.45138e-012	1.68555e-012	1.90307e-012	2.0346e-012	2.22614e-012	2.33152e-012	2.46336e-012	2.61222e-012	2.71749e-012	
MinCout:	0	FineR:	10	FineC:	130

	FineC120	FineC121	FineC122	FineC123	FineC124	FineC125	FineC126	FineC127	FineC128	FineC129	FineC130	FineC131	FineC132	FineC133	FineC134	FineC135	FineC136	FineC137	FineC138	FineC139	FineC140	
FineR0	-4.49816e-013	-4.67559e-013	-4.25161e-013	-3.22597e-013	-2.978e-013	-2.55321e-013	-1.52681e-013	-1.70289e-013	-8.51821e-014	-2.50547e-014	1.75232e-014	0	1.02749e-013	1.27918e-013	2.30726e-013	2.1329e-013	3.16136e-013	3.58875e-013	3.415e-013	4.44401e-013	5.04603e-013	
FineR1	-5.5243e-013	-5.10064e-013	-4.67677e-013	-3.82788e-013	-3.40342e-013	-2.55321e-013	-1.52681e-013	-1.70289e-013	-1.27749e-013	-8.51877e-014	0	4.26205e-014	1.45391e-013	1.45388e-013	2.30726e-013	2.1329e-013	3.16136e-013	3.58875e-013	3.415e-013	4.44401e-013	5.47312e-013	
FineR2	-5.5243e-013	-5.10064e-013	-4.07527e-013	-4.25241e-013	-2.978e-013	-1.95176e-013	-1.52681e-013	-1.70289e-013	-1.27749e-013	-2.50547e-014	-4.26018e-014	6.01306e-014	1.45391e-013	1.27918e-013	2.30726e-013	2.73425e-013	3.16136e-013	3.58875e-013	3.415e-013	4.44401e-013	4.87182e-013	
FineR3	-5.5243e-013	-4.67559e-013	-3.65011e-013	-3.40256e-013	-2.978e-013	-2.55321e-013	-1.52681e-013	-1.70289e-013	-8.51821e-014	-2.50547e-014	0	0	1.45391e-013	1.27918e-013	2.30726e-013	2.1329e-013	3.16136e-013	3.58875e-013	4.01621e-013	4.44401e-013	4.44401e-013	
FineR4	-5.5243e-013	-4.67559e-013	-4.07527e-013	-3.82717e-013	-3.40279e-013	-1.95176e-013	-1.52681e-013	-1.70289e-013	-1.27749e-013	-8.51877e-014	-4.26018e-014	1.02754e-013	8.5257e-014	1.88049e-013	2.30726e-013	2.1329e-013	3.16136e-013	3.58875e-013	3.415e-013	4.44401e-013	4.87182e-013	
FineR5	-5.09935e-013	-5.10064e-013	-4.25161e-013	-3.82717e-013	-2.978e-013	-2.55321e-013	-2.12822e-013	-1.70289e-013	-1.27749e-013	1.7534e-014	-4.26018e-014	0	1.45391e-013	1.27918e-013	1.88049e-013	2.73425e-013	2.56013e-013	3.58875e-013	4.01621e-013	4.44401e-013	4.44418e-013	
FineR6	-5.5243e-013	-5.10064e-013	-4.25161e-013	-3.22597e-013	-2.978e-013	-2.97819e-013	-2.12822e-013	-1.70289e-013	-1.27749e-013	-8.51877e-014	1.75232e-014	4.26205e-014	1.02749e-013	1.88049e-013	2.30726e-013	2.1329e-013	3.16136e-013	3.58875e-013	4.01621e-013	4.44401e-013	4.87182e-013	
FineR7	-5.5243e-013	-5.10064e-013	-4.25161e-013	-3.82717e-013	-2.978e-013	-2.55321e-013	-1.52681e-013	-1.70289e-013	-8.51821e-014	-2.50547e-014	1.75232e-014	0	1.45391e-013	1.27918e-013	1.706e-013	2.30729e-013	2.56013e-013	3.58875e-013	3.415e-013	4.44401e-013	4.27063e-013	
FineR8	-5.5243e-013	-4.67559e-013	-4.25161e-013	-3.82742e-013	-3.40279e-013	-2.55321e-013	-2.55338e-013	-1.70289e-013	-1.27749e-013	-8.51877e-014	1.75232e-014	4.26205e-014	1.02749e-013	1.27918e-013	1.706e-013	2.1329e-013	3.16136e-013	3.58875e-013	3.415e-013	4.44401e-013	4.27063e-013	
FineR9	-6.1259e-013	-4.67559e-013	-4.25161e-013	-3.82742e-013	-3.40279e-013	-2.55321e-013	-1.52681e-013	-1.70289e-013	-1.27749e-013	1.7534e-014	-4.26018e-014	0	4.26233e-014	1.27918e-013	1.27926e-013	2.73425e-013	3.16136e-013	3.58875e-013	2.98757e-013	4.44401e-013	3.84285e-013	
FineR10	-5.5243e-013	-5.10064e-013	-4.25161e-013	-3.82717e-013	-2.978e-013	-2.97819e-013	-1.52681e-013	-1.70289e-013	-1.27749e-013	-8.51877e-014	-4.26018e-014	0	1.02749e-013	1.27918e-013	2.30726e-013	2.73425e-013	3.16136e-013	2.98737e-013	4.01621e-013	4.44401e-013	4.87182e-013	
FineR11	-5.5243e-013	-4.67559e-013	-4.25161e-013	-3.22597e-013	-2.978e-013	-2.55321e-013	-1.52681e-013	-1.70289e-013	-1.27749e-013	-2.50547e-014	-4.26018e-014	0	1.45391e-013	1.27918e-013	2.30726e-013	2.73425e-013	3.16136e-013	3.58875e-013	3.58875e-013	4.44401e-013	4.27063e-013	
FineR12	-6.12484e-013	-4.67559e-013	-3.65011e-013	-3.82742e-013	-3.40279e-013	-2.97819e-013	-2.12822e-013	-1.70289e-013	-1.27749e-013	-8.51877e-014	1.75232e-014	0	4.26233e-014	1.45388e-013	1.27926e-013	2.30729e-013	2.56013e-013	3.58875e-013	3.415e-013	4.01636e-013	4.44418e-013	
FineR13	-5.09935e-013	-4.67559e-013	-3.65011e-013	-3.22597e-013	-3.40279e-013	-2.55321e-013	-1.95201e-013	-1.10165e-013	-1.27749e-013	-8.51877e-014	-4.26018e-014	4.26205e-014	4.26233e-014	1.45388e-013	2.30726e-013	2.30729e-013	2.56013e-013	3.58875e-013	3.415e-013	4.44401e-013	4.87182e-013	
FineR14	-5.5243e-013	-5.10064e-013	-4.25161e-013	-3.82742e-013	-3.40279e-013	-2.97819e-013	-2.12822e-013	-1.70289e-013	-1.27749e-013	-8.51877e-014	1.75232e-014	4.26205e-014	1.45391e-013	1.27918e-013	2.30726e-013	2.30729e-013	3.16136e-013	3.58875e-013	3.415e-013	4.44401e-013	4.44418e-013	
FineR15	-4.92314e-013	-4.67559e-013	-4.07527e-013	-3.82717e-013	-3.40279e-013	-2.55321e-013	-1.52681e-013	-1.70289e-013	-1.27749e-013	-8.51877e-014	1.75232e-014	4.26205e-014	1.45391e-013	1.27918e-013	1.27926e-013	2.73425e-013	3.16136e-013	3.58875e-013	4.01621e-013	4.44401e-013	4.87182e-013	
FineR16	-5.5243e-013	-5.10064e-013	-4.07527e-013	-3.82788e-013	-2.978e-013	-2.55321e-013	-2.12808e-013	-1.70289e-013	-1.27749e-013	-2.50547e-014	1.75232e-014	4.26205e-014	1.02749e-013	8.52626e-014	1.706e-013	2.1329e-013	2.56013e-013	2.98757e-013	3.415e-013	3.84285e-013	4.87182e-013	
FineR17	-6.1259e-013	-5.10064e-013	-4.25161e-013	-3.65124e-013	-3.40342e-013	-2.55321e-013	-2.12822e-013	-1.70289e-013	-1.27773e-013	1.7534e-014	0	4.26205e-014	8.5257e-014	1.27918e-013	2.30726e-013	2.1329e-013	3.16136e-013	3.58875e-013	4.01621e-013	4.44401e-013	4.44418e-013	
FineR18	-5.5243e-013	-5.10064e-013	-4.67677e-013	-3.22597e-013	-3.40342e-013	-2.97875e-013	-2.55386e-013	-1.5274e-013	-1.27773e-013	-4.26018e-014	0	4.26205e-014	8.52626e-014	8.52786e-014	1.88076e-013	2.73425e-013	2.13344e-013	3.58875e-013	3.415e-013	4.01702e-013	3.84357e-013	
FineR19	-6.1259e-013	-5.10064e-013	-4.67677e-013	-3.82788e-013	-3.40342e-013	-2.55321e-013	-2.55369e-013	-2.12862e-013	-1.27773e-013	-4.26018e-014	-4.26098e-014	4.26205e-014	1.45391e-013	1.27918e-013	1.706e-013	2.73425e-013	2.13344e-013	3.16196e-013	2.98813e-013	4.01702e-013	4.44492e-013	
FineR20	-6.1259e-013	-5.10064e-013	-4.67677e-013	-3.82788e-013	-3.40342e-013	-2.97875e-013	-2.55386e-013	-2.12862e-013	-1.27773e-013	-8.52036e-014	-4.26098e-014	0	1.45391e-013	1.27918e-013	1.2795e-013	1.70632e-013	2.13344e-013	3.16196e-013	2.98813e-013	3.41587e-013	3.84357e-013	
MinCout:	0	FineR:	0	FineC:	131

