	CoarseC0	CoarseC10	CoarseC20	CoarseC30	CoarseC40	CoarseC50	CoarseC60	CoarseC70	CoarseC80	CoarseC90	CoarseC100	CoarseC110	CoarseC120	CoarseC130	CoarseC140	CoarseC150	CoarseC160	CoarseC170	CoarseC180	CoarseC190	CoarseC200	CoarseC210	CoarseC220	CoarseC230	CoarseC240	CoarseC250	
CoarseR0	-5.24154e-010	-4.95142e-010	-4.75097e-010	-4.59499e-010	-4.47587e-010	-4.38328e-010	-4.31634e-010	-4.26456e-010	-4.22677e-010	-4.19732e-010	-4.17635e-010	-4.16122e-010	-4.15208e-010	-4.14597e-010	-4.14249e-010	-4.1412e-010	-4.14284e-010	-4.1499e-010	-4.16523e-010	-4.17961e-010	-4.19257e-010	-4.20494e-010	-4.21378e-010	-4.21989e-010	-4.22376e-010	-4.22562e-010	
CoarseR10	-3.96882e-010	-3.71111e-010	-3.53023e-010	-3.38988e-010	-3.28535e-010	-3.20528e-010	-3.1412e-010	-3.09313e-010	-3.05743e-010	-3.03208e-010	-3.01356e-010	-3.00382e-010	-3.00215e-010	-3.01354e-010	-3.02982e-010	-3.04709e-010	-3.06714e-010	-3.08811e-010	-3.10798e-010	-3.12763e-010	-3.14675e-010	-3.16286e-010	-3.17871e-010	-3.19279e-010	-3.20447e-010	-3.21408e-010	
CoarseR20	-3.05471e-010	-2.81986e-010	-2.65675e-010	-2.52935e-010	-2.43204e-010	-2.35607e-010	-2.29573e-010	-2.25187e-010	-2.21962e-010	-2.20122e-010	-2.20101e-010	-2.20785e-010	-2.21979e-010	-2.23682e-010	-2.25633e-010	-2.27781e-010	-2.3011e-010	-2.32528e-010	-2.35015e-010	-2.37616e-010	-2.403e-010	-2.42979e-010	-2.45382e-010	-2.47673e-010	-2.49846e-010	-2.52064e-010	
CoarseR30	-2.38016e-010	-2.15245e-010	-1.99926e-010	-1.87947e-010	-1.7848e-010	-1.71304e-010	-1.65795e-010	-1.62378e-010	-1.60739e-010	-1.60115e-010	-1.60309e-010	-1.6116e-010	-1.62564e-010	-1.64498e-010	-1.66795e-010	-1.69458e-010	-1.72443e-010	-1.755e-010	-1.78715e-010	-1.82198e-010	-1.85802e-010	-1.89495e-010	-1.93275e-010	-1.97404e-010	-2.02572e-010	-2.06528e-010	
CoarseR40	-1.8493e-010	-1.63368e-010	-1.49055e-010	-1.37471e-010	-1.2843e-010	-1.21761e-010	-1.17779e-010	-1.15036e-010	-1.13564e-010	-1.13026e-010	-1.1344e-010	-1.14428e-010	-1.16218e-010	-1.1856e-010	-1.21519e-010	-1.24623e-010	-1.2824e-010	-1.32322e-010	-1.36703e-010	-1.42274e-010	-1.46504e-010	-1.53096e-010	-1.59416e-010	-1.65054e-010	-1.698e-010	-1.74202e-010	
CoarseR50	-1.43704e-010	-1.24204e-010	-1.09608e-010	-9.84432e-011	-8.95903e-011	-8.39012e-011	-7.99153e-011	-7.73354e-011	-7.60033e-011	-7.56185e-011	-7.60825e-011	-7.76195e-011	-7.97559e-011	-8.25945e-011	-8.70237e-011	-9.00037e-011	-9.45832e-011	-9.97713e-011	-1.05975e-010	-1.13931e-010	-1.21415e-010	-1.27963e-010	-1.33983e-010	-1.39355e-010	-1.44103e-010	-1.4792e-010	
CoarseR60	-1.10914e-010	-9.1633e-011	-7.77496e-011	-6.69475e-011	-5.94686e-011	-5.39602e-011	-4.90933e-011	-4.65448e-011	-4.53389e-011	-4.44656e-011	-4.60756e-011	-4.77164e-011	-5.0351e-011	-5.37535e-011	-5.7901e-011	-6.27087e-011	-6.87914e-011	-7.69915e-011	-8.52197e-011	-9.39565e-011	-1.00872e-010	-1.07223e-010	-1.12798e-010	-1.18055e-010	-1.22499e-010	-1.26574e-010	
CoarseR70	-8.44922e-011	-6.51991e-011	-5.18634e-011	-4.1599e-011	-3.47127e-011	-2.92754e-011	-2.47074e-011	-2.22333e-011	-2.01951e-011	-2.01751e-011	-2.13148e-011	-2.33362e-011	-2.65102e-011	-3.05188e-011	-3.64024e-011	-4.22627e-011	-5.19635e-011	-6.12512e-011	-6.95824e-011	-7.70321e-011	-8.3782e-011	-8.99188e-011	-9.56156e-011	-1.00493e-010	-1.04693e-010	-1.08498e-010	
CoarseR80	-6.22171e-011	-4.33094e-011	-3.03095e-011	-2.00649e-011	-1.23814e-011	-6.80267e-012	-2.90993e-012	-7.02004e-013	2.19803e-013	8.98456e-014	-7.40734e-013	-3.06233e-012	-6.68637e-012	-1.16862e-011	-1.85727e-011	-2.89105e-011	-3.87611e-011	-4.72916e-011	-5.50856e-011	-6.216e-011	-6.87734e-011	-7.45349e-011	-7.9749e-011	-8.43864e-011	-8.88494e-011	-9.25834e-011	
CoarseR90	-4.36168e-011	-2.49197e-011	-1.18488e-011	-1.59283e-012	6.10619e-012	1.16192e-011	1.54106e-011	1.77564e-011	1.85603e-011	1.79904e-011	1.61978e-011	1.41761e-011	9.76524e-012	3.24094e-012	-7.04842e-012	-1.72051e-011	-2.63092e-011	-3.45733e-011	-4.22797e-011	-4.91779e-011	-5.54078e-011	-6.09215e-011	-6.60486e-011	-7.06301e-011	-7.48085e-011	-7.87162e-011	
CoarseR100	-2.79464e-011	-9.39501e-012	3.68211e-012	1.39706e-011	2.19706e-011	2.75481e-011	3.15447e-011	3.35174e-011	3.42638e-011	3.35887e-011	3.13419e-011	2.79539e-011	2.33771e-011	1.32814e-011	2.84307e-012	-6.6807e-012	-1.54107e-011	-2.34014e-011	-3.06776e-011	-3.72677e-011	-4.33375e-011	-4.87484e-011	-5.37013e-011	-5.82275e-011	-6.2537e-011	-6.53913e-011	
CoarseR110	-1.51306e-011	3.68288e-012	1.67953e-011	2.73779e-011	3.48462e-011	4.09934e-011	4.48058e-011	4.767e-011	4.76742e-011	4.65124e-011	4.42799e-011	3.94112e-011	3.29459e-011	2.21616e-011	1.23009e-011	2.9984e-012	-5.60843e-012	-1.44003e-011	-2.02638e-011	-2.66288e-011	-3.2589e-011	-3.79022e-011	-4.28612e-011	-4.7179e-011	-5.12344e-011	-5.48892e-011	
CoarseR120	-4.39659e-012	1.46012e-011	2.82169e-011	3.84812e-011	4.66352e-011	5.25764e-011	5.62248e-011	5.85507e-011	5.88154e-011	5.79434e-011	5.53144e-011	5.0361e-011	4.06885e-011	3.04118e-011	2.07982e-011	1.19374e-011	3.63056e-012	-3.75656e-012	-1.06859e-011	-1.706e-011	-2.38594e-011	-2.79515e-011	-3.29263e-011	-3.71949e-011	-4.13551e-011	-4.48838e-011	
CoarseR130	4.14802e-012	2.35751e-011	3.73611e-011	4.7888e-011	5.55416e-011	6.14213e-011	6.56269e-011	6.73541e-011	6.80142e-011	6.66928e-011	6.38836e-011	5.71553e-011	4.80317e-011	3.79259e-011	2.80489e-011	2.01064e-011	1.21271e-011	4.81868e-012	-1.81287e-012	-8.05769e-012	-1.37204e-011	-1.87851e-011	-2.37166e-011	-2.72227e-011	-3.2988e-011	-3.56037e-011	
CoarseR140	1.20054e-011	3.13656e-011	4.51324e-011	5.5923e-011	6.4256e-011	7.01715e-011	7.41205e-011	7.56958e-011	7.66908e-011	7.55754e-011	7.28343e-011	6.38234e-011	5.48499e-011	4.50974e-011	3.61962e-011	2.78658e-011	1.9962e-011	1.29218e-011	6.18119e-012	-7.56585e-015	-5.4252e-012	-1.055e-011	-1.53628e-011	-1.95284e-011	-2.3563e-011	-2.72658e-011	
CoarseR150	1.85552e-011	3.80795e-011	5.21442e-011	6.31102e-011	7.13686e-011	7.72015e-011	8.15911e-011	8.38885e-011	8.46162e-011	8.32786e-011	7.94268e-011	7.00402e-011	6.12969e-011	5.17477e-011	4.30578e-011	3.4913e-011	2.72046e-011	2.08653e-011	1.36645e-011	7.69047e-012	2.08205e-012	-2.83039e-012	-7.51795e-012	-1.17408e-011	-1.57945e-011	-1.92645e-011	
CoarseR160	2.40572e-011	4.38415e-011	5.80839e-011	6.91407e-011	7.76483e-011	8.38612e-011	8.81464e-011	9.06968e-011	9.13666e-011	9.00802e-011	8.58587e-011	7.67269e-011	6.64641e-011	5.81867e-011	4.95857e-011	4.14318e-011	3.39998e-011	2.70891e-011	2.05243e-011	1.46637e-011	9.34918e-012	4.16981e-012	-4.87901e-013	-4.64502e-012	-8.5589e-012	-1.22757e-011	
CoarseR170	2.84798e-011	4.85483e-011	6.29019e-011	7.42621e-011	8.27163e-011	8.92364e-011	9.31467e-011	9.64039e-011	9.72002e-011	9.60132e-011	9.12733e-011	8.25931e-011	7.29211e-011	6.2946e-011	5.55579e-011	4.7637e-011	4.02529e-011	3.33317e-011	2.70081e-011	2.11327e-011	1.55308e-011	1.06767e-011	6.00287e-012	1.81161e-012	-2.08889e-012	-5.85888e-012	
CoarseR180	3.19631e-011	5.22634e-011	6.69044e-011	7.84837e-011	8.72683e-011	9.38495e-011	9.84747e-011	1.0153e-010	1.0249e-010	1.0139e-010	9.6559e-011	8.77214e-011	7.82401e-011	6.94563e-011	6.06023e-011	5.3336e-011	4.60202e-011	3.93191e-011	3.28472e-011	2.70073e-011	2.16644e-011	1.66559e-011	1.17272e-011	8.34661e-012	3.22852e-012	1.88746e-013	
CoarseR190	3.49549e-011	5.5272e-011	7.02242e-011	8.19104e-011	9.09382e-011	9.76567e-011	1.02668e-010	1.05698e-010	1.06925e-010	1.06108e-010	1.01183e-010	9.2544e-011	8.3316e-011	7.45487e-011	6.62564e-011	5.86215e-011	5.13988e-011	4.46577e-011	3.83524e-011	3.25751e-011	2.71005e-011	2.21673e-011	1.74206e-011	1.31185e-011	8.98225e-012	6.2392e-012	
CoarseR200	3.69375e-011	5.77421e-011	7.275e-011	8.45918e-011	9.39493e-011	1.00988e-010	1.06181e-010	1.08772e-010	1.10807e-010	1.10218e-010	1.06266e-010	9.71114e-011	8.80018e-011	7.93067e-011	7.12266e-011	6.37237e-011	5.62629e-011	4.97018e-011	4.32192e-011	3.74429e-011	3.21912e-011	2.70924e-011	2.24449e-011	1.81118e-011	1.40778e-011	1.04231e-011	
CoarseR210	3.85708e-011	5.96604e-011	7.47966e-011	8.69374e-011	9.63976e-011	1.03678e-010	1.0914e-010	1.12541e-010	1.14241e-010	1.13967e-010	1.09618e-010	1.01279e-010	9.20579e-011	8.36656e-011	7.56732e-011	6.78426e-011	6.0757e-011	5.41829e-011	4.79967e-011	4.20099e-011	3.64849e-011	3.16142e-011	2.69795e-011	2.2644e-011	1.86469e-011	1.48759e-011	
CoarseR220	3.95701e-011	6.09476e-011	7.62567e-011	8.86708e-011	9.83722e-011	1.05576e-010	1.11538e-010	1.15243e-010	1.17099e-010	1.17043e-010	1.13405e-010	1.04655e-010	9.62022e-011	8.76664e-011	7.971e-011	7.20345e-011	6.46013e-011	5.76064e-011	5.18904e-011	4.60797e-011	4.06713e-011	3.5581e-011	3.0955e-011	2.66156e-011	2.25941e-011	1.88857e-011	
CoarseR230	4.0292e-011	6.17322e-011	7.72619e-011	8.98116e-011	9.98248e-011	1.07451e-010	1.13357e-010	1.17368e-010	1.19494e-010	1.19644e-010	1.16575e-010	1.09416e-010	9.98453e-011	9.12478e-011	8.33106e-011	7.5823e-011	6.85322e-011	6.25427e-011	5.56108e-011	4.97522e-011	4.42524e-011	3.92367e-011	3.45092e-011	3.02654e-011	2.60897e-011	2.24441e-011	
CoarseR240	4.03842e-011	6.2076e-011	7.79436e-011	9.06207e-011	1.0082e-010	1.09105e-010	1.14748e-010	1.19066e-010	1.21356e-010	1.21886e-010	1.19331e-010	1.11648e-010	1.0314e-010	9.45291e-011	8.66932e-011	7.90227e-011	7.1814e-011	6.50075e-011	5.85649e-011	5.28901e-011	4.75818e-011	4.23243e-011	3.75676e-011	3.33033e-011	2.92748e-011	2.5432e-011	
CoarseR250	4.02751e-011	6.2208e-011	7.82677e-011	9.11273e-011	1.01567e-010	1.09893e-010	1.15786e-010	1.20378e-010	1.22786e-010	1.23708e-010	1.21784e-010	1.14612e-010	1.05954e-010	9.74262e-011	8.95782e-011	8.20137e-011	7.47891e-011	6.80026e-011	6.08831e-011	5.58715e-011	5.03796e-011	4.51839e-011	4.04689e-011	3.60541e-011	3.19344e-011	2.81268e-011	
MinCout:	-7.56585e-015	CoarseR:	140	CoarseC:	190

	CoarseC40	CoarseC41	CoarseC42	CoarseC43	CoarseC44	CoarseC45	CoarseC46	CoarseC47	CoarseC48	CoarseC49	CoarseC50	CoarseC51	CoarseC52	CoarseC53	CoarseC54	CoarseC55	CoarseC56	CoarseC57	CoarseC58	CoarseC59	CoarseC60	
CoarseR70	-3.32612e-011	-3.27746e-011	-3.23799e-011	-3.20286e-011	-3.19538e-011	-3.14727e-011	-3.08079e-011	-3.00949e-011	-2.93011e-011	-2.84975e-011	-2.78031e-011	-2.7527e-011	-2.66261e-011	-2.66444e-011	-2.56521e-011	-2.58369e-011	-2.49601e-011	-2.45509e-011	-2.42121e-011	-2.39593e-011	-2.35997e-011	
CoarseR71	-3.13188e-011	-3.07341e-011	-3.00232e-011	-2.95498e-011	-2.88716e-011	-2.83944e-011	-2.76315e-011	-2.67198e-011	-2.61521e-011	-2.54136e-011	-2.50906e-011	-2.5037e-011	-2.52118e-011	-2.48699e-011	-2.44293e-011	-2.35869e-011	-2.29989e-011	-2.23695e-011	-2.2016e-011	-2.1565e-011	-2.1267e-011	
CoarseR72	-2.89929e-011	-2.83301e-011	-2.77251e-011	-2.71765e-011	-2.66242e-011	-2.60279e-011	-2.55937e-011	-2.49698e-011	-2.44075e-011	-2.38134e-011	-2.33333e-011	-2.2859e-011	-2.24123e-011	-2.1912e-011	-2.09893e-011	-2.06352e-011	-1.97701e-011	-1.96304e-011	-1.99676e-011	-2.0245e-011	-1.98489e-011	
CoarseR73	-2.67194e-011	-2.62214e-011	-2.54778e-011	-2.48545e-011	-2.43024e-011	-2.36517e-011	-2.3098e-011	-2.26433e-011	-2.21853e-011	-2.15155e-011	-2.10592e-011	-2.04493e-011	-2.0108e-011	-1.96086e-011	-1.91548e-011	-1.86403e-011	-1.83895e-011	-1.78267e-011	-1.75859e-011	-1.71415e-011	-1.65311e-011	
CoarseR74	-2.44322e-011	-2.3795e-011	-2.32373e-011	-2.27596e-011	-2.19883e-011	-2.15641e-011	-2.09348e-011	-2.04243e-011	-1.99902e-011	-1.93626e-011	-1.89491e-011	-1.84217e-011	-1.78641e-011	-1.74313e-011	-1.68595e-011	-1.66725e-011	-1.59204e-011	-1.55849e-011	-1.52643e-011	-1.48818e-011	-1.4537e-011	
CoarseR75	-2.22924e-011	-2.18027e-011	-2.12698e-011	-2.0591e-011	-1.99055e-011	-1.94433e-011	-1.89794e-011	-1.82673e-011	-1.78981e-011	-1.71142e-011	-1.67248e-011	-1.62464e-011	-1.57664e-011	-1.52383e-011	-1.46724e-011	-1.43123e-011	-1.38617e-011	-1.33921e-011	-1.30143e-011	-1.27374e-011	-1.23554e-011	
CoarseR76	-2.02617e-011	-1.98771e-011	-1.93482e-011	-1.85298e-011	-1.80936e-011	-1.75133e-011	-1.695e-011	-1.64044e-011	-1.58149e-011	-1.53401e-011	-1.47529e-011	-1.42948e-011	-1.36418e-011	-1.31787e-011	-1.26761e-011	-1.22554e-011	-1.16145e-011	-1.11847e-011	-1.08696e-011	-1.04941e-011	-1.02594e-011	
CoarseR77	-1.84235e-011	-1.78171e-011	-1.74562e-011	-1.6805e-011	-1.61478e-011	-1.55304e-011	-1.49712e-011	-1.43493e-011	-1.39859e-011	-1.33928e-011	-1.27469e-011	-1.2233e-011	-1.16449e-011	-1.11845e-011	-1.06513e-011	-1.0432e-011	-9.59636e-012	-9.0676e-012	-8.8e-012	-8.42823e-012	-8.15602e-012	
CoarseR78	-1.66745e-011	-1.60317e-011	-1.55898e-011	-1.49238e-011	-1.44131e-011	-1.37381e-011	-1.33063e-011	-1.27058e-011	-1.22659e-011	-1.13933e-011	-1.08737e-011	-1.00587e-011	-9.73793e-012	-9.184e-012	-8.78808e-012	-8.05574e-012	-7.74001e-012	-7.11707e-012	-6.79402e-012	-6.46786e-012	-6.09639e-012	
CoarseR79	-1.48508e-011	-1.41928e-011	-1.36937e-011	-1.30497e-011	-1.24821e-011	-1.19149e-011	-1.13631e-011	-1.08275e-011	-1.02513e-011	-9.46265e-012	-9.00896e-012	-8.24087e-012	-7.7579e-012	-7.02658e-012	-6.73755e-012	-5.88898e-012	-5.93301e-012	-5.06266e-012	-4.65667e-012	-4.33576e-012	-4.01049e-012	
CoarseR80	-1.31628e-011	-1.24047e-011	-1.18275e-011	-1.12484e-011	-1.05622e-011	-9.95631e-012	-9.46961e-012	-8.8586e-012	-8.36525e-012	-7.86495e-012	-6.5691e-012	-6.70865e-012	-5.30974e-012	-5.7387e-012	-4.13575e-012	-5.27013e-012	-3.35828e-012	-2.98636e-012	-2.73191e-012	-2.26651e-012	-2.00571e-012	
CoarseR81	-1.15927e-011	-1.10657e-011	-1.02209e-011	-9.31375e-012	-8.62999e-012	-8.04808e-012	-7.54699e-012	-7.0193e-012	-6.24738e-012	-5.71289e-012	-4.90047e-012	-4.34216e-012	-3.69073e-012	-3.4052e-012	-2.26331e-012	-2.75365e-012	-1.35455e-012	-1.0471e-012	-7.0847e-013	-4.37261e-013	-7.69577e-014	
CoarseR82	-9.26086e-012	-8.5708e-012	-7.60747e-012	-6.86816e-012	-6.58474e-012	-6.5892e-012	-6.23443e-012	-5.29774e-012	-4.4391e-012	-3.34515e-012	-3.00145e-012	-2.22786e-012	-1.77425e-012	-1.14243e-012	-9.60818e-013	1.34525e-013	5.3924e-013	9.03257e-013	1.29801e-012	1.60804e-012	1.86112e-012	
CoarseR83	-7.2722e-012	-6.60714e-012	-6.0226e-012	-5.45438e-012	-4.82295e-012	-4.35162e-012	-3.50335e-012	-2.58966e-012	-2.23258e-012	-1.64857e-012	-2.29834e-012	7.44371e-016	-7.97911e-013	1.35306e-012	1.3906e-013	2.10243e-012	2.50337e-012	2.8035e-012	3.1504e-012	3.50098e-012	3.87107e-012	
CoarseR84	-5.35702e-012	-4.73716e-012	-4.11534e-012	-3.53151e-012	-2.92251e-012	-2.2894e-012	-1.81972e-012	-1.2426e-012	-3.44191e-013	1.17009e-013	1.18704e-012	2.40344e-012	2.13692e-012	2.29767e-012	2.2557e-012	3.79441e-012	4.35658e-012	4.71371e-012	5.05673e-012	5.50762e-012	5.81377e-012	
CoarseR85	-3.43223e-012	-2.81626e-012	-2.19702e-012	-1.5757e-012	-9.70747e-013	-3.84108e-013	1.8666e-013	6.5664e-013	1.23335e-012	2.6264e-012	2.50586e-012	3.82331e-012	3.40594e-012	5.04679e-012	4.22297e-012	6.44158e-012	6.19266e-012	5.82645e-012	6.53968e-012	7.27209e-012	7.57422e-012	
CoarseR86	-1.66608e-012	-9.9288e-013	-3.77361e-013	2.41436e-013	8.61972e-013	1.36327e-012	1.99153e-012	2.51993e-012	3.74989e-012	4.02739e-012	4.99236e-012	5.09692e-012	6.32503e-012	5.83964e-012	7.33042e-012	7.50864e-012	7.95953e-012	8.62317e-012	9.40995e-012	9.04558e-012	8.56398e-012	
CoarseR87	1.27611e-013	7.96938e-013	1.40865e-012	2.0255e-012	2.62195e-012	3.18209e-012	3.702e-012	4.6909e-012	5.41708e-012	6.04831e-012	6.65223e-012	7.16973e-012	7.79564e-012	8.30349e-012	9.17474e-012	9.55865e-012	9.85741e-012	1.01862e-011	1.04743e-011	1.07051e-011	1.14792e-011	
CoarseR88	1.97401e-012	2.63934e-012	3.24929e-012	3.85945e-012	4.45371e-012	5.0716e-012	5.72935e-012	6.15232e-012	7.73004e-012	7.50324e-012	9.07462e-012	8.21906e-012	1.00714e-011	8.86969e-012	1.10282e-011	1.13031e-011	1.16422e-011	1.1924e-011	1.22956e-011	1.27052e-011	1.29803e-011	
CoarseR89	3.72476e-012	4.38618e-012	4.99012e-012	5.5974e-012	6.14502e-012	6.80129e-012	7.69232e-012	8.19058e-012	9.23071e-012	9.59332e-012	1.0467e-011	1.06832e-011	1.17749e-011	1.14039e-011	1.26197e-011	1.29524e-011	1.33925e-011	1.36707e-011	1.40557e-011	1.43835e-011	1.4671e-011	
CoarseR90	5.48015e-012	6.14038e-012	6.8012e-012	7.30126e-012	7.94818e-012	8.51569e-012	9.38371e-012	1.00603e-011	1.0914e-011	1.13311e-011	1.21676e-011	1.24151e-011	1.34871e-011	1.35843e-011	1.4365e-011	1.46953e-011	1.50272e-011	1.54079e-011	1.57712e-011	1.60686e-011	1.6395e-011	
MinCout:	7.44371e-016	CoarseR:	83	CoarseC:	51

	FineC0	FineC10	FineC20	FineC30	FineC40	FineC50	FineC60	FineC70	FineC80	FineC90	FineC100	FineC110	FineC120	FineC130	FineC140	FineC150	FineC160	FineC170	FineC180	FineC190	FineC200	FineC210	FineC220	FineC230	FineC240	FineC250	
FineR0	-5.73288e-011	-4.68022e-011	-4.07965e-011	-3.64494e-011	-3.35272e-011	-3.11084e-011	-2.9396e-011	-2.79078e-011	-2.67773e-011	-2.57955e-011	-2.48596e-011	-2.423e-011	-2.37298e-011	-2.3294e-011	-2.28808e-011	-2.23935e-011	-2.20913e-011	-2.19352e-011	-2.16584e-011	-2.14686e-011	-2.11951e-011	-2.09709e-011	-2.07645e-011	-2.06998e-011	-2.06171e-011	-2.04569e-011	
FineR10	-4.51453e-011	-3.50984e-011	-2.87315e-011	-2.44917e-011	-2.13383e-011	-1.90647e-011	-1.71702e-011	-1.57534e-011	-1.45535e-011	-1.35588e-011	-1.27676e-011	-1.20213e-011	-1.16019e-011	-1.12286e-011	-1.05956e-011	-1.0413e-011	-9.98765e-012	-9.83046e-012	-9.63008e-012	-9.37777e-012	-9.16979e-012	-9.03954e-012	-8.89196e-012	-8.83288e-012	-8.76377e-012	-8.47811e-012	
FineR20	-4.07261e-011	-3.03157e-011	-2.44373e-011	-1.95293e-011	-1.72343e-011	-1.42994e-011	-1.26405e-011	-1.12502e-011	-9.9764e-012	-9.24906e-012	-8.32094e-012	-7.75907e-012	-7.14002e-012	-6.76998e-012	-6.31968e-012	-5.98983e-012	-5.60768e-012	-5.32895e-012	-5.09356e-012	-4.9189e-012	-4.81489e-012	-4.57845e-012	-4.3535e-012	-4.38785e-012	-4.33354e-012	-4.19646e-012	
FineR30	-3.8415e-011	-2.8053e-011	-2.19629e-011	-1.76463e-011	-1.44016e-011	-1.17211e-011	-1.09915e-011	-9.21385e-012	-7.69795e-012	-6.85224e-012	-6.00459e-012	-5.28623e-012	-4.83336e-012	-4.37792e-012	-4.04969e-012	-3.7467e-012	-3.39876e-012	-3.1636e-012	-2.88481e-012	-2.73662e-012	-2.62193e-012	-2.42963e-012	-2.1598e-012	-2.03874e-012	-2.07207e-012	-1.84623e-012	
FineR40	-3.71863e-011	-2.66707e-011	-2.05307e-011	-1.62421e-011	-1.31076e-011	-1.08214e-011	-8.29158e-012	-7.6687e-012	-6.95509e-012	-5.78156e-012	-4.71044e-012	-4.10799e-012	-3.23029e-012	-3.07911e-012	-2.55139e-012	-2.20505e-012	-1.94449e-012	-1.6659e-012	-1.40366e-012	-1.21148e-012	-1.06303e-012	-9.91763e-013	-7.82125e-013	-7.37851e-013	-5.55616e-013	-4.67219e-013	
FineR50	-3.62884e-011	-2.57609e-011	-1.94954e-011	-1.51783e-011	-1.21056e-011	-9.90542e-012	-8.05384e-012	-6.12008e-012	-5.13982e-012	-5.05919e-012	-4.37816e-012	-3.45467e-012	-2.54503e-012	-2.11552e-012	-1.74478e-012	-1.27688e-012	-9.64678e-013	-8.41918e-013	-4.85059e-013	-3.87629e-013	-1.34333e-013	3.13181e-014	1.02872e-013	2.07922e-013	3.73774e-013	4.62435e-013	
FineR60	-3.56585e-011	-2.52351e-011	-1.8978e-011	-1.46874e-011	-1.14747e-011	-9.25685e-012	-7.35013e-012	-5.78653e-012	-4.17202e-012	-3.61561e-012	-3.43067e-012	-3.08075e-012	-2.40421e-012	-1.78503e-012	-1.09321e-012	-7.81986e-013	-4.60698e-013	-1.65028e-013	1.31043e-013	2.45492e-013	4.21152e-013	7.08231e-013	7.3587e-013	7.4698e-013	9.29619e-013	9.7438e-013	
FineR70	-3.52957e-011	-2.46609e-011	-1.85066e-011	-1.41975e-011	-1.10746e-011	-8.7361e-012	-7.0326e-012	-5.59588e-012	-4.18577e-012	-2.80931e-012	-2.23942e-012	-2.43734e-012	-2.19472e-012	-1.68769e-012	-9.71192e-013	-4.95187e-013	-1.39535e-013	2.35162e-013	4.27055e-013	7.57689e-013	8.55658e-013	1.09261e-012	1.07637e-012	1.25932e-012	1.36469e-012	1.47015e-012	
FineR80	-3.49063e-011	-2.44353e-011	-1.8346e-011	-1.37966e-011	-1.0757e-011	-8.37958e-012	-6.71665e-012	-5.28075e-012	-3.99906e-012	-2.68362e-012	-1.53586e-012	-1.35055e-012	-1.35174e-012	-1.08866e-012	-8.83849e-013	-4.34139e-013	5.18751e-014	2.8662e-013	6.86963e-013	1.04412e-012	1.18593e-012	1.47318e-012	1.44022e-012	1.71105e-012	1.79992e-012	1.84478e-012	
FineR90	-3.47197e-011	-2.43003e-011	-1.80068e-011	-1.36415e-011	-1.03604e-011	-8.10562e-012	-6.34308e-012	-4.72498e-012	-3.82675e-012	-2.66211e-012	-1.53267e-012	-8.29986e-013	-6.66007e-013	-7.32291e-013	-5.10318e-013	-2.68798e-013	9.54897e-014	5.38903e-013	8.35029e-013	1.11463e-012	1.36785e-012	1.50005e-012	1.78751e-012	1.73807e-012	2.08655e-012	2.07074e-012	
FineR100	-3.45622e-011	-2.3973e-011	-1.7757e-011	-1.33244e-011	-1.02515e-011	-7.916e-012	-6.07214e-012	-4.55687e-012	-3.56068e-012	-2.65514e-012	-1.3668e-012	-5.59941e-013	-2.56556e-013	-2.80153e-013	-1.01397e-013	-6.01502e-014	2.7802e-013	5.38918e-013	8.95685e-013	1.11448e-012	1.42841e-012	1.49983e-012	1.83114e-012	1.9031e-012	2.06942e-012	2.32976e-012	
FineR110	-3.43875e-011	-2.37995e-011	-1.75807e-011	-1.32127e-011	-1.00809e-011	-7.74666e-012	-5.92521e-012	-4.4499e-012	-3.41264e-012	-2.4516e-012	-1.38359e-012	-4.36988e-013	1.16611e-013	1.36629e-013	3.7599e-013	2.87597e-013	4.43194e-013	5.21613e-013	1.00001e-012	1.19207e-012	1.41126e-012	1.66499e-012	1.79729e-012	2.08504e-012	2.19059e-012	2.3129e-012	
FineR120	-3.42938e-011	-2.36493e-011	-1.73873e-011	-1.30048e-011	-9.97189e-012	-7.67994e-012	-5.85865e-012	-4.32451e-012	-3.30705e-012	-2.28599e-012	-1.2792e-012	-4.35862e-013	3.25425e-013	6.92384e-013	5.0662e-013	6.35155e-013	8.34107e-013	8.51993e-013	1.12149e-012	1.21866e-012	1.47183e-012	1.72545e-012	1.99598e-012	2.02394e-012	2.35587e-012	2.34008e-012	
FineR130	-3.41247e-011	-2.35754e-011	-1.7401e-011	-1.30207e-011	-9.86596e-012	-7.51431e-012	-5.67291e-012	-4.28023e-012	-3.09881e-012	-2.28372e-012	-1.23539e-012	-3.495e-013	4.29896e-013	7.96969e-013	7.93603e-013	8.26434e-013	9.21249e-013	9.12647e-013	1.16504e-012	1.35706e-012	1.65385e-012	1.72516e-012	1.81357e-012	2.1283e-012	2.26136e-012	2.40035e-012	
FineR140	-3.40491e-011	-2.34298e-011	-1.72698e-011	-1.29129e-011	-9.79926e-012	-7.50944e-012	-5.60847e-012	-4.29567e-012	-3.15756e-012	-2.13751e-012	-1.31334e-012	-2.69997e-013	4.91216e-013	9.01494e-013	9.58781e-013	1.01751e-012	1.22501e-012	1.095e-012	1.26933e-012	1.40062e-012	1.68049e-012	1.81258e-012	1.85717e-012	2.08418e-012	2.15627e-012	2.44438e-012	
FineR150	-3.39119e-011	-2.33347e-011	-1.73108e-011	-1.28458e-011	-9.69336e-012	-7.4254e-012	-5.50334e-012	-4.00983e-012	-2.95493e-012	-2.15433e-012	-1.23324e-012	-3.30115e-013	4.92009e-013	1.06645e-012	1.24532e-012	1.26086e-012	1.23401e-012	1.34709e-012	1.35641e-012	1.4878e-012	1.66318e-012	1.76832e-012	1.94464e-012	2.17175e-012	2.23331e-012	2.4438e-012	
FineR160	-3.39956e-011	-2.35007e-011	-1.73407e-011	-1.27813e-011	-9.65111e-012	-7.28076e-012	-5.43959e-012	-4.06799e-012	-2.86924e-012	-2.15286e-012	-1.2144e-012	-2.44399e-013	7.17325e-013	1.02369e-012	1.28868e-012	1.40829e-012	1.33825e-012	1.36426e-012	1.39996e-012	1.59208e-012	1.7846e-012	1.99439e-012	2.08285e-012	2.11077e-012	2.26043e-012	2.39951e-012	
FineR170	-3.38875e-011	-2.33707e-011	-1.71377e-011	-1.27143e-011	-9.60528e-012	-7.35838e-012	-5.39702e-012	-3.96465e-012	-2.76503e-012	-1.98855e-012	-1.20781e-012	-2.86478e-013	6.21211e-013	1.17099e-012	1.43614e-012	1.51269e-012	1.50322e-012	1.51206e-012	1.50414e-012	1.61844e-012	1.78426e-012	1.99401e-012	2.08268e-012	2.23214e-012	2.39848e-012	2.47054e-012	
FineR180	-3.38813e-011	-2.33404e-011	-1.70721e-011	-1.27553e-011	-9.60485e-012	-7.39567e-012	-5.3958e-012	-3.92194e-012	-2.88563e-012	-1.98747e-012	-1.18903e-012	-3.04333e-013	7.42919e-013	1.2923e-012	1.4363e-012	1.46891e-012	1.50323e-012	1.4338e-012	1.52121e-012	1.6791e-012	1.86177e-012	1.95998e-012	2.06534e-012	2.13721e-012	2.30369e-012	2.42614e-012	
FineR190	-3.39304e-011	-2.33618e-011	-1.70448e-011	-1.27078e-011	-9.64201e-012	-7.31409e-012	-5.41387e-012	-3.98071e-012	-2.86468e-012	-1.88388e-012	-1.16435e-012	-1.21537e-013	6.39597e-013	1.23167e-012	1.47926e-012	1.6339e-012	1.52927e-012	1.55528e-012	1.64239e-012	1.71303e-012	1.82769e-012	2.03748e-012	2.06509e-012	2.15376e-012	2.32016e-012	2.54736e-012	
FineR200	-3.3895e-011	-2.33314e-011	-1.71481e-011	-1.26289e-011	-9.53921e-012	-7.20983e-012	-5.39269e-012	-3.97978e-012	-2.84211e-012	-1.98601e-012	-1.14557e-012	-2.00345e-013	6.64719e-013	1.23168e-012	1.39299e-012	1.57311e-012	1.62445e-012	1.67657e-012	1.68593e-012	1.66143e-012	1.88824e-012	1.97642e-012	2.0649e-012	2.23108e-012	2.24232e-012	2.42556e-012	
FineR210	-3.39843e-011	-2.3409e-011	-1.70252e-011	-1.2725e-011	-9.63696e-012	-7.1691e-012	-5.43023e-012	-3.91764e-012	-2.79907e-012	-1.9248e-012	-1.20589e-012	-1.57241e-013	7.00451e-013	1.15341e-012	1.47927e-012	1.69427e-012	1.50276e-012	1.55499e-012	1.68576e-012	1.75616e-012	1.76648e-012	2.03701e-012	2.10856e-012	2.23081e-012	2.36333e-012	2.34775e-012	
FineR220	-3.39463e-011	-2.33135e-011	-1.7143e-011	-1.26619e-011	-9.57538e-012	-7.32874e-012	-5.39093e-012	-4.0391e-012	-2.84043e-012	-1.82164e-012	-1.08413e-012	-1.57022e-013	7.43381e-013	1.27473e-012	1.49675e-012	1.57292e-012	1.52875e-012	1.55495e-012	1.59045e-012	1.72202e-012	1.82704e-012	2.08061e-012	2.1083e-012	2.25742e-012	2.31939e-012	2.59063e-012	
FineR230	-3.39374e-011	-2.32721e-011	-1.71396e-011	-1.27042e-011	-9.55563e-012	-7.16598e-012	-5.53097e-012	-3.89782e-012	-2.77977e-012	-1.96151e-012	-9.98846e-013	-2.60298e-013	5.61382e-013	1.25737e-012	1.41851e-012	1.45124e-012	1.48532e-012	1.53736e-012	1.66836e-012	1.67812e-012	1.88759e-012	1.89799e-012	2.10804e-012	2.31826e-012	2.37979e-012	2.4688e-012	
FineR240	-3.38501e-011	-2.33414e-011	-1.71396e-011	-1.2683e-011	-9.67685e-012	-7.30785e-012	-5.40969e-012	-3.99699e-012	-2.82138e-012	-2.04544e-012	-1.04147e-012	-7.80461e-014	6.64989e-013	1.19622e-012	1.37513e-012	1.51195e-012	1.48507e-012	1.49385e-012	1.54666e-012	1.55648e-012	1.79256e-012	1.91495e-012	2.07395e-012	2.36194e-012	2.42388e-012	2.52957e-012	
FineR250	-3.3902e-011	-2.35146e-011	-1.69912e-011	-1.27029e-011	-9.55363e-012	-7.38779e-012	-5.40848e-012	-4.05672e-012	-2.85878e-012	-1.97971e-012	-1.1809e-012	-1.56582e-013	7.43474e-013	1.19645e-012	1.47894e-012	1.55516e-012	1.42433e-012	1.35482e-012	1.56384e-012	1.73863e-012	1.7317e-012	2.00237e-012	2.09084e-012	2.25714e-012	2.34603e-012	2.57325e-012	
MinCout:	3.13181e-014	FineR:	50	FineC:	210

	FineC160	FineC161	FineC162	FineC163	FineC164	FineC165	FineC166	FineC167	FineC168	FineC169	FineC170	FineC171	FineC172	FineC173	FineC174	FineC175	FineC176	FineC177	FineC178	FineC179	FineC180	
FineR50	-1.78027e-012	-1.58066e-012	-1.76296e-012	-1.71951e-012	-1.63256e-012	-1.67592e-012	-1.58894e-012	-1.4674e-012	-1.54554e-012	-1.50187e-012	-1.48463e-012	-1.50187e-012	-1.35393e-012	-1.45841e-012	-1.29325e-012	-1.17174e-012	-1.18886e-012	-1.206e-012	-1.08447e-012	-1.11109e-012	-1.16229e-012	
FineR51	-1.55454e-012	-1.67611e-012	-1.51107e-012	-1.51121e-012	-1.572e-012	-1.4676e-012	-1.40684e-012	-1.44136e-012	-1.27623e-012	-1.31989e-012	-1.29355e-012	-1.38056e-012	-1.23264e-012	-1.17188e-012	-1.08477e-012	-1.02407e-012	-1.14551e-012	-1.04109e-012	-1.10187e-012	-9.9743e-013	-9.97487e-013	
FineR52	-1.58943e-012	-1.51126e-012	-1.61555e-012	-1.51129e-012	-1.36352e-012	-1.36352e-012	-1.44149e-012	-1.30265e-012	-1.19836e-012	-1.21558e-012	-1.21558e-012	-1.11125e-012	-1.12852e-012	-1.00698e-012	-1.02414e-012	-9.6337e-013	-9.80577e-013	-8.15384e-013	-9.19703e-013	-8.32374e-013	-7.71613e-013	
FineR53	-1.47664e-012	-1.40708e-012	-1.37258e-012	-1.40711e-012	-1.2248e-012	-1.24205e-012	-1.13777e-012	-1.27648e-012	-1.17214e-012	-1.11136e-012	-9.46259e-013	-9.46344e-013	-9.89921e-013	-8.24934e-013	-8.15565e-013	-7.54798e-013	-7.98356e-013	-7.54713e-013	-7.37671e-013	-6.67409e-013	-6.67409e-013	
FineR54	-1.32903e-012	-1.26826e-012	-1.20751e-012	-1.24201e-012	-1.19851e-012	-1.09422e-012	-1.12059e-012	-1.07708e-012	-9.72798e-013	-8.85679e-013	-8.24865e-013	-9.02773e-013	-7.81272e-013	-8.59175e-013	-7.81333e-013	-7.81333e-013	-7.54837e-013	-5.89685e-013	-6.33383e-013	-5.72596e-013	-5.45963e-013	
FineR55	-1.22484e-012	-1.16407e-012	-1.12052e-012	-1.1987e-012	-1.07713e-012	-1.07713e-012	-1.03362e-012	-9.29315e-013	-1.00733e-012	-7.81426e-013	-7.37833e-013	-6.7708e-013	-7.37811e-013	-6.94268e-013	-6.94191e-013	-5.72701e-013	-7.11329e-013	-5.46136e-013	-4.8541e-013	-4.68355e-013	-4.41721e-013	
FineR56	-1.07716e-012	-1.0598e-012	-1.05991e-012	-9.99156e-013	-1.07719e-012	-9.55659e-013	-8.68551e-013	-8.25002e-013	-8.25002e-013	-7.64254e-013	-7.20683e-013	-7.81497e-013	-6.943e-013	-7.37907e-013	-6.07038e-013	-5.72822e-013	-4.51365e-013	-5.02615e-013	-4.85454e-013	-4.41776e-013	-3.81031e-013	
FineR57	-1.07714e-012	-9.38422e-013	-1.05993e-012	-9.7289e-013	-9.12123e-013	-8.51373e-013	-9.46641e-013	-7.64309e-013	-8.07924e-013	-5.9932e-013	-6.60056e-013	-5.55727e-013	-5.90015e-013	-5.72865e-013	-5.72904e-013	-4.24849e-013	-4.68464e-013	-4.85564e-013	-3.81141e-013	-4.41914e-013	-3.37455e-013	
FineR58	-9.38421e-013	-1.05989e-012	-9.12164e-013	-7.90653e-013	-8.0789e-013	-7.90653e-013	-7.03605e-013	-6.7726e-013	-7.64369e-013	-5.38589e-013	-5.99361e-013	-5.12134e-013	-4.34287e-013	-4.68547e-013	-4.24907e-013	-4.24907e-013	-3.98357e-013	-3.98357e-013	-3.81191e-013	-2.76762e-013	-1.55299e-013	
FineR59	-9.55679e-013	-8.94907e-013	-8.51427e-013	-8.08005e-013	-7.90746e-013	-7.64483e-013	-7.03709e-013	-5.21483e-013	-4.95042e-013	-4.7794e-013	-5.12238e-013	-3.90748e-013	-4.51485e-013	-3.64239e-013	-3.20591e-013	-4.07895e-013	-4.24965e-013	-3.20547e-013	-1.82029e-013	-7.76551e-014	-1.72421e-013	
FineR60	-7.99678e-013	-7.90759e-013	-8.34195e-013	-7.90712e-013	-7.64477e-013	-6.69224e-013	-5.04279e-013	-6.77408e-013	-5.38692e-013	-4.51507e-013	-4.51496e-013	-4.17209e-013	-3.47144e-013	-2.86413e-013	-2.42782e-013	-3.03532e-013	-3.03491e-013	-2.16215e-013	-7.76964e-014	-5.10356e-014	-1.38408e-013	
FineR61	-8.34194e-013	-7.29959e-013	-7.29959e-013	-6.86427e-013	-6.42977e-013	-7.21014e-013	-5.99442e-013	-5.38681e-013	-3.7364e-013	-5.12323e-013	-3.90795e-013	-4.3438e-013	-3.90789e-013	-3.20687e-013	-4.25099e-013	-1.9917e-013	-3.37826e-013	-9.47687e-014	-1.38436e-013	-1.72531e-013	-6.80696e-014	
FineR62	-8.34238e-013	-8.16924e-013	-6.43004e-013	-6.69239e-013	-7.03738e-013	-5.82199e-013	-4.95124e-013	-4.95124e-013	-3.73665e-013	-3.73665e-013	-3.30083e-013	-2.69352e-013	-1.82128e-013	-2.25748e-013	-1.38491e-013	-9.48072e-014	-7.77568e-014	-1.72641e-013	-5.11181e-014	-7.42079e-015	-7.42079e-015	
FineR63	-6.08469e-013	-7.12661e-013	-6.25712e-013	-6.69165e-013	-5.21454e-013	-4.34362e-013	-3.73618e-013	-5.21482e-013	-4.95165e-013	-3.90836e-013	-3.03656e-013	-1.21413e-013	-3.03656e-013	-1.82152e-013	-1.72702e-013	-9.48374e-014	-9.48374e-014	-9.48374e-014	-1.11913e-013	9.59389e-015	9.61868e-015	
FineR64	-7.29919e-013	-7.12688e-013	-6.25744e-013	-4.60732e-013	-4.60732e-013	-4.77933e-013	-3.56468e-013	-3.73642e-013	-3.73642e-013	-3.12939e-013	-2.69321e-013	-2.08637e-013	-2.08626e-013	-1.21429e-013	-1.38518e-013	-5.12501e-014	8.73123e-014	2.6592e-014	-7.51711e-015	1.74702e-013	1.13979e-013	
FineR65	-4.86953e-013	-5.64945e-013	-4.26233e-013	-5.9957e-013	-4.60751e-013	-3.73656e-013	-3.73691e-013	-2.52202e-013	-1.91482e-013	-2.95746e-013	-2.25781e-013	-1.38573e-013	-1.9934e-013	-1.99343e-013	-7.782e-014	-1.70723e-014	-9.49061e-014	2.65783e-014	-3.41447e-014	7.02674e-014	9.69142e-014	
FineR66	-5.9115e-013	-5.47702e-013	-5.82261e-013	-4.77976e-013	-4.77976e-013	-3.56454e-013	-2.52172e-013	-2.86547e-013	-2.25786e-013	-2.25786e-013	-1.04324e-013	-1.82185e-013	-1.21457e-013	-1.82185e-013	-1.21446e-013	4.36287e-014	-7.782e-014	1.3096e-013	7.02289e-014	1.74647e-013	1.74647e-013	
FineR67	-4.26164e-013	-5.47633e-013	-4.4342e-013	-3.99981e-013	-2.52188e-013	-2.7852e-013	-2.52188e-013	-1.47895e-013	-2.86577e-013	-1.82226e-013	-1.65055e-013	-4.35984e-014	-6.07284e-014	-1.70998e-014	-9.49748e-014	8.72683e-014	9.43711e-015	2.52351e-013	9.67821e-014	2.96076e-013	7.02289e-014	
FineR68	-5.30276e-013	-4.86897e-013	-5.2148e-013	-3.99942e-013	-3.99942e-013	-2.7847e-013	-2.86588e-013	-2.69367e-013	-2.08615e-013	-1.47898e-013	-1.04324e-013	-1.38655e-013	-1.71273e-014	4.36231e-014	2.65096e-014	1.04341e-013	7.01738e-014	1.30919e-013	1.91647e-013	2.35325e-013	1.57546e-013	
FineR69	-4.52265e-013	-5.04139e-013	-4.4337e-013	-3.99893e-013	-3.82689e-013	-2.9569e-013	-2.52166e-013	-1.47881e-013	-1.04318e-013	-1.99477e-013	-4.35929e-014	-1.04329e-013	-6.07421e-014	0	2.64958e-014	1.13791e-013	1.9162e-013	7.01572e-014	1.91647e-013	2.1828e-013	2.1828e-013	
FineR70	-5.47605e-013	-4.43378e-013	-4.6067e-013	-3.39154e-013	-3.56412e-013	-3.12905e-013	-2.52174e-013	-1.47884e-013	-4.35818e-014	-1.65082e-013	-2.64273e-014	6.0731e-014	2.64545e-014	4.36093e-014	-1.71383e-014	8.72351e-014	2.08692e-013	1.9162e-013	2.78965e-013	2.18253e-013	1.7458e-013	
MinCout:	0	FineR:	69	FineC:	173

