	CoarseC0	CoarseC10	CoarseC20	CoarseC30	CoarseC40	CoarseC50	CoarseC60	CoarseC70	CoarseC80	CoarseC90	CoarseC100	CoarseC110	CoarseC120	CoarseC130	CoarseC140	CoarseC150	CoarseC160	CoarseC170	CoarseC180	CoarseC190	CoarseC200	CoarseC210	CoarseC220	CoarseC230	CoarseC240	CoarseC250	
CoarseR0	-2.73452e-010	-2.63401e-010	-2.57059e-010	-2.53856e-010	-2.5243e-010	-2.52476e-010	-2.53901e-010	-2.56175e-010	-2.5954e-010	-2.63272e-010	-2.67794e-010	-2.72282e-010	-2.76879e-010	-2.80643e-010	-2.84168e-010	-2.87632e-010	-2.90308e-010	-2.92683e-010	-2.94621e-010	-2.96635e-010	-2.97925e-010	-2.99224e-010	-3.00195e-010	-3.00805e-010	-3.01289e-010	-3.01603e-010	
CoarseR10	-2.28461e-010	-2.2109e-010	-2.16554e-010	-2.1378e-010	-2.12599e-010	-2.13376e-010	-2.15089e-010	-2.18105e-010	-2.21698e-010	-2.26167e-010	-2.31335e-010	-2.36172e-010	-2.40611e-010	-2.44475e-010	-2.48264e-010	-2.51314e-010	-2.54545e-010	-2.57126e-010	-2.59343e-010	-2.61258e-010	-2.62824e-010	-2.64309e-010	-2.6542e-010	-2.66126e-010	-2.66992e-010	-2.6759e-010	
CoarseR20	-1.9332e-010	-1.86389e-010	-1.81917e-010	-1.79641e-010	-1.79172e-010	-1.80253e-010	-1.82411e-010	-1.85743e-010	-1.90213e-010	-1.95882e-010	-2.01329e-010	-2.06421e-010	-2.10946e-010	-2.15326e-010	-2.19171e-010	-2.22507e-010	-2.25632e-010	-2.28373e-010	-2.30901e-010	-2.3325e-010	-2.35117e-010	-2.36517e-010	-2.37835e-010	-2.38994e-010	-2.39751e-010	-2.40387e-010	
CoarseR30	-1.6467e-010	-1.56774e-010	-1.52841e-010	-1.50905e-010	-1.50667e-010	-1.52021e-010	-1.55002e-010	-1.58865e-010	-1.64716e-010	-1.70475e-010	-1.76059e-010	-1.81505e-010	-1.86256e-010	-1.90645e-010	-1.94951e-010	-1.98658e-010	-2.01984e-010	-2.04958e-010	-2.0765e-010	-2.09909e-010	-2.11969e-010	-2.13876e-010	-2.1538e-010	-2.16657e-010	-2.17625e-010	-2.18635e-010	
CoarseR40	-1.3933e-010	-1.32149e-010	-1.28354e-010	-1.26827e-010	-1.26767e-010	-1.2881e-010	-1.31981e-010	-1.37102e-010	-1.43523e-010	-1.49586e-010	-1.55461e-010	-1.6092e-010	-1.65958e-010	-1.70512e-010	-1.74931e-010	-1.78663e-010	-1.82256e-010	-1.85749e-010	-1.88424e-010	-1.91034e-010	-1.93189e-010	-1.95173e-010	-1.96977e-010	-1.98336e-010	-1.99586e-010	-2.00696e-010	
CoarseR50	-1.18034e-010	-1.10736e-010	-1.07326e-010	-1.05874e-010	-1.0625e-010	-1.08581e-010	-1.12517e-010	-1.18791e-010	-1.25577e-010	-1.31614e-010	-1.37626e-010	-1.4331e-010	-1.48431e-010	-1.53349e-010	-1.57788e-010	-1.61919e-010	-1.65554e-010	-1.69263e-010	-1.72395e-010	-1.75135e-010	-1.77545e-010	-1.79618e-010	-1.81511e-010	-1.82916e-010	-1.84226e-010	-1.85299e-010	
CoarseR60	-9.9595e-011	-9.25631e-011	-8.91434e-011	-8.80177e-011	-8.87199e-011	-9.13498e-011	-9.62755e-011	-1.03036e-010	-1.09651e-010	-1.16183e-010	-1.22341e-010	-1.28143e-010	-1.3361e-010	-1.38734e-010	-1.4359e-010	-1.47858e-010	-1.51976e-010	-1.55653e-010	-1.59023e-010	-1.61982e-010	-1.64266e-010	-1.66446e-010	-1.68362e-010	-1.69771e-010	-1.71242e-010	-1.72527e-010	
CoarseR70	-8.45717e-011	-7.70841e-011	-7.37321e-011	-7.25739e-011	-7.3556e-011	-7.63635e-011	-8.24869e-011	-8.93189e-011	-9.62051e-011	-1.02822e-010	-1.09212e-010	-1.15108e-010	-1.20753e-010	-1.26148e-010	-1.31456e-010	-1.35932e-010	-1.40131e-010	-1.43958e-010	-1.4732e-010	-1.50093e-010	-1.52651e-010	-1.5474e-010	-1.56856e-010	-1.58457e-010	-1.59767e-010	-1.6129e-010	
CoarseR80	-7.06474e-011	-6.37915e-011	-5.97456e-011	-5.8871e-011	-6.01533e-011	-6.33975e-011	-7.02375e-011	-7.719e-011	-8.41548e-011	-9.08926e-011	-9.72288e-011	-1.03706e-010	-1.09583e-010	-1.15226e-010	-1.20617e-010	-1.25505e-010	-1.29824e-010	-1.33572e-010	-1.37011e-010	-1.39928e-010	-1.42427e-010	-1.44816e-010	-1.46293e-010	-1.48301e-010	-1.49648e-010	-1.51013e-010	
CoarseR90	-5.82468e-011	-5.15604e-011	-4.85475e-011	-4.70681e-011	-4.84643e-011	-5.22965e-011	-5.94421e-011	-6.6618e-011	-7.37278e-011	-8.05919e-011	-8.73597e-011	-9.36944e-011	-9.9872e-011	-1.0599e-010	-1.1158e-010	-1.16509e-010	-1.20774e-010	-1.24609e-010	-1.28102e-010	-1.30796e-010	-1.33466e-010	-1.35748e-010	-1.37624e-010	-1.39395e-010	-1.40874e-010	-1.42162e-010	
CoarseR100	-4.77134e-011	-4.08241e-011	-3.76873e-011	-3.68885e-011	-3.80873e-011	-4.23927e-011	-4.97454e-011	-5.69704e-011	-6.4375e-011	-7.13988e-011	-7.83517e-011	-8.5035e-011	-9.16463e-011	-9.78887e-011	-1.0349e-010	-1.08188e-010	-1.12605e-010	-1.16444e-010	-1.19837e-010	-1.2262e-010	-1.25116e-010	-1.27432e-010	-1.29492e-010	-1.31333e-010	-1.32907e-010	-1.34279e-010	
CoarseR110	-3.85227e-011	-3.16469e-011	-2.83783e-011	-2.75951e-011	-2.88661e-011	-3.38961e-011	-4.10322e-011	-4.82915e-011	-5.57462e-011	-6.29877e-011	-7.01717e-011	-7.74801e-011	-8.43169e-011	-9.06608e-011	-9.60083e-011	-1.01049e-010	-1.05241e-010	-1.09091e-010	-1.12454e-010	-1.15361e-010	-1.17913e-010	-1.20222e-010	-1.22292e-010	-1.24261e-010	-1.25899e-010	-1.27147e-010	
CoarseR120	-3.08972e-011	-2.37721e-011	-2.05057e-011	-1.95695e-011	-2.09956e-011	-2.60145e-011	-3.3333e-011	-4.07922e-011	-4.81136e-011	-5.56334e-011	-6.31055e-011	-7.06744e-011	-7.76867e-011	-8.39101e-011	-8.94578e-011	-9.42537e-011	-9.85811e-011	-1.02473e-010	-1.05862e-010	-1.08812e-010	-1.11458e-010	-1.13696e-010	-1.15854e-010	-1.17807e-010	-1.19447e-010	-1.20901e-010	
CoarseR130	-2.43986e-011	-1.72082e-011	-1.36456e-011	-1.25313e-011	-1.39e-011	-1.89349e-011	-2.63793e-011	-3.39706e-011	-4.13228e-011	-4.90701e-011	-5.71732e-011	-6.49121e-011	-7.1777e-011	-7.77543e-011	-8.33205e-011	-8.82046e-011	-9.25372e-011	-9.63121e-011	-9.98612e-011	-1.02813e-010	-1.05616e-010	-1.07906e-010	-1.09993e-010	-1.11916e-010	-1.13581e-010	-1.1506e-010	
CoarseR140	-1.85862e-011	-1.12992e-011	-7.56696e-012	-6.40268e-012	-7.6053e-012	-1.22717e-011	-1.98404e-011	-2.74175e-011	-3.52585e-011	-4.3218e-011	-5.1873e-011	-5.95648e-011	-6.63503e-011	-7.23289e-011	-7.78427e-011	-8.27309e-011	-8.70767e-011	-9.11179e-011	-9.42778e-011	-9.75792e-011	-1.00146e-010	-1.02527e-010	-1.04903e-010	-1.06626e-010	-1.08404e-010	-1.09823e-010	
CoarseR150	-1.38138e-011	-6.35902e-012	-2.66078e-012	-1.37142e-012	-2.16576e-012	-6.78802e-012	-1.41899e-011	-2.18766e-011	-2.99187e-011	-3.84331e-011	-4.68939e-011	-5.46809e-011	-6.1385e-011	-6.74449e-011	-7.31022e-011	-7.7828e-011	-8.22165e-011	-8.62964e-011	-8.96292e-011	-9.2793e-011	-9.56413e-011	-9.7914e-011	-1.00219e-010	-1.02083e-010	-1.03783e-010	-1.05407e-010	
CoarseR160	-9.87992e-012	-2.2987e-012	1.93354e-012	3.36896e-012	2.40392e-012	-1.51508e-012	-9.14118e-012	-1.67871e-011	-2.49744e-011	-3.37967e-011	-4.22665e-011	-5.00806e-011	-5.68098e-011	-6.2882e-011	-6.84363e-011	-7.34061e-011	-7.78558e-011	-8.1742e-011	-8.52554e-011	-8.82718e-011	-9.09862e-011	-9.36379e-011	-9.59871e-011	-9.78454e-011	-9.96269e-011	-1.01199e-010	
CoarseR170	-6.67493e-012	1.312e-012	5.47502e-012	7.2369e-012	6.61872e-012	3.19989e-012	-4.2471e-012	-1.20966e-011	-2.05149e-011	-2.96211e-011	-3.8157e-011	-4.58626e-011	-5.26991e-011	-5.88918e-011	-6.44478e-011	-6.94031e-011	-7.36848e-011	-7.78054e-011	-8.11767e-011	-8.44174e-011	-8.72943e-011	-8.98685e-011	-9.21494e-011	-9.41772e-011	-9.60212e-011	-9.76766e-011	
CoarseR180	-4.18205e-012	4.09362e-012	8.53256e-012	1.04957e-011	1.00504e-011	7.09841e-012	-1.88718e-013	-8.04215e-012	-1.67545e-011	-2.60868e-011	-3.44955e-011	-4.22136e-011	-4.90074e-011	-5.52591e-011	-6.08537e-011	-6.58209e-011	-7.02559e-011	-7.42346e-011	-7.78672e-011	-8.09742e-011	-8.38467e-011	-8.63699e-011	-8.86673e-011	-9.0941e-011	-9.28821e-011	-9.446e-011	
CoarseR190	-2.11532e-012	6.3693e-012	1.09454e-011	1.30759e-011	1.29546e-011	1.0427e-011	3.68716e-012	-4.14026e-012	-1.32393e-011	-2.26788e-011	-3.13688e-011	-3.90015e-011	-4.59021e-011	-5.19516e-011	-5.75323e-011	-6.2599e-011	-6.72051e-011	-7.11339e-011	-7.47535e-011	-7.77864e-011	-8.0766e-011	-8.34286e-011	-8.58264e-011	-8.79437e-011	-8.98616e-011	-9.14979e-011	
CoarseR200	-7.86194e-013	7.99782e-012	1.27636e-011	1.52341e-011	1.5414e-011	1.33196e-011	6.77597e-012	-1.27842e-012	-1.04219e-011	-1.98239e-011	-2.83237e-011	-3.60414e-011	-4.29115e-011	-4.91406e-011	-5.47151e-011	-5.97504e-011	-6.42752e-011	-6.83578e-011	-7.21178e-011	-7.53649e-011	-7.8312e-011	-8.08459e-011	-8.33137e-011	-8.55579e-011	-8.75223e-011	-8.91942e-011	
CoarseR210	2.25693e-013	9.10972e-012	1.42383e-011	1.67194e-011	1.72314e-011	1.53249e-011	9.90245e-012	1.88227e-012	-7.67875e-012	-1.70321e-011	-2.56982e-011	-3.32605e-011	-4.01962e-011	-4.64852e-011	-5.22179e-011	-5.70833e-011	-6.18447e-011	-6.58884e-011	-6.95177e-011	-7.28967e-011	-7.59236e-011	-7.86198e-011	-8.09875e-011	-8.32679e-011	-8.52653e-011	-8.70115e-011	
CoarseR220	7.26328e-013	9.83283e-012	1.52651e-011	1.79893e-011	1.86913e-011	1.7002e-011	1.24592e-011	4.28133e-012	-5.47585e-012	-1.47693e-011	-2.33455e-011	-3.10441e-011	-3.79479e-011	-4.43725e-011	-5.01827e-011	-5.52838e-011	-5.96706e-011	-6.39439e-011	-6.77417e-011	-7.10249e-011	-7.40768e-011	-7.69271e-011	-7.93793e-011	-8.15037e-011	-8.35785e-011	-8.54949e-011	
CoarseR230	9.85996e-013	1.02176e-011	1.57678e-011	1.8844e-011	1.96742e-011	1.83669e-011	1.4553e-011	6.42229e-012	-3.32655e-012	-1.28405e-011	-2.13322e-011	-2.92638e-011	-3.62496e-011	-4.26354e-011	-4.83732e-011	-5.33916e-011	-5.82387e-011	-6.2346e-011	-6.59807e-011	-6.95531e-011	-7.25524e-011	-7.52233e-011	-7.77374e-011	-8.00138e-011	-8.19871e-011	-8.38876e-011	
CoarseR240	9.28469e-013	1.04465e-011	1.62079e-011	1.93418e-011	2.02981e-011	1.92312e-011	1.58442e-011	8.30084e-012	-1.78009e-012	-1.13901e-011	-1.98403e-011	-2.78368e-011	-3.47913e-011	-4.12172e-011	-4.7065e-011	-5.21679e-011	-5.68348e-011	-6.11558e-011	-6.48318e-011	-6.82631e-011	-7.13395e-011	-7.4068e-011	-7.67123e-011	-7.90245e-011	-8.11532e-011	-8.27958e-011	
CoarseR250	4.37426e-013	1.00812e-011	1.61578e-011	1.94762e-011	2.06866e-011	1.97871e-011	1.67568e-011	9.83302e-012	-2.20139e-013	-9.67593e-012	-1.8467e-011	-2.62616e-011	-3.33037e-011	-3.97898e-011	-4.57272e-011	-5.09679e-011	-5.56628e-011	-5.98783e-011	-6.36205e-011	-6.73371e-011	-7.03074e-011	-7.31674e-011	-7.57767e-011	-7.80863e-011	-8.02168e-011	-8.19628e-011	
MinCout:	-1.88718e-013	CoarseR:	180	CoarseC:	60

	CoarseC80	CoarseC81	CoarseC82	CoarseC83	CoarseC84	CoarseC85	CoarseC86	CoarseC87	CoarseC88	CoarseC89	CoarseC90	CoarseC91	CoarseC92	CoarseC93	CoarseC94	CoarseC95	CoarseC96	CoarseC97	CoarseC98	CoarseC99	CoarseC100	
CoarseR240	-1.48225e-012	-2.47445e-012	-3.29979e-012	-4.26616e-012	-5.32779e-012	-6.17287e-012	-7.16056e-012	-8.26225e-012	-9.22474e-012	-1.00729e-011	-1.08846e-011	-1.19349e-011	-1.26805e-011	-1.3633e-011	-1.45685e-011	-1.53773e-011	-1.62891e-011	-1.69288e-011	-1.78561e-011	-1.86468e-011	-1.95023e-011	
CoarseR241	-1.25079e-012	-2.26096e-012	-3.17997e-012	-4.00975e-012	-5.20732e-012	-6.05356e-012	-7.01012e-012	-8.02119e-012	-8.98341e-012	-9.85002e-012	-1.07393e-011	-1.17477e-011	-1.24799e-011	-1.33444e-011	-1.44157e-011	-1.51047e-011	-1.59744e-011	-1.67692e-011	-1.75186e-011	-1.84868e-011	-1.9277e-011	
CoarseR242	-1.14992e-012	-2.06202e-012	-3.07864e-012	-3.97265e-012	-4.99301e-012	-5.89636e-012	-6.79401e-012	-7.88354e-012	-8.77392e-012	-9.84863e-012	-1.05879e-011	-1.15245e-011	-1.24057e-011	-1.31668e-011	-1.40789e-011	-1.49586e-011	-1.58925e-011	-1.67416e-011	-1.74846e-011	-1.82913e-011	-1.91878e-011	
CoarseR243	-9.98961e-013	-1.87083e-012	-2.80783e-012	-3.781e-012	-4.8011e-012	-5.68771e-012	-6.71551e-012	-7.72606e-012	-8.69472e-012	-9.5773e-012	-1.04661e-011	-1.1331e-011	-1.22539e-011	-1.30695e-011	-1.40041e-011	-1.47477e-011	-1.5769e-011	-1.65468e-011	-1.74082e-011	-1.82631e-011	-1.90691e-011	
CoarseR244	-8.74902e-013	-1.7056e-012	-2.7201e-012	-3.71106e-012	-4.68113e-012	-5.6154e-012	-6.64425e-012	-7.60632e-012	-8.54411e-012	-9.31975e-012	-1.0273e-011	-1.12639e-011	-1.2193e-011	-1.29953e-011	-1.39296e-011	-1.47666e-011	-1.5677e-011	-1.65004e-011	-1.73553e-011	-1.80964e-011	-1.90156e-011	
CoarseR245	-8.3595e-013	-1.69045e-012	-2.6985e-012	-3.73521e-012	-4.7471e-012	-5.59086e-012	-6.52969e-012	-7.35538e-012	-8.57225e-012	-9.38351e-012	-1.02002e-011	-1.11358e-011	-1.20161e-011	-1.29377e-011	-1.37357e-011	-1.46371e-011	-1.5547e-011	-1.62341e-011	-1.71597e-011	-1.80849e-011	-1.87483e-011	
CoarseR246	-5.73485e-013	-1.61181e-012	-2.57947e-012	-3.65816e-012	-4.62746e-012	-5.58484e-012	-6.48244e-012	-7.24574e-012	-8.33285e-012	-9.14975e-012	-1.00794e-011	-1.09432e-011	-1.17584e-011	-1.26859e-011	-1.36361e-011	-1.44915e-011	-1.52818e-011	-1.61041e-011	-1.71548e-011	-1.79376e-011	-1.87496e-011	
CoarseR247	-5.52833e-013	-1.42361e-012	-2.46062e-012	-3.47999e-012	-4.55743e-012	-5.39342e-012	-6.3794e-012	-7.27612e-012	-8.23663e-012	-9.07689e-012	-9.92822e-012	-1.08632e-011	-1.17496e-011	-1.26121e-011	-1.35454e-011	-1.4369e-011	-1.51651e-011	-1.60128e-011	-1.69189e-011	-1.77489e-011	-1.86186e-011	
CoarseR248	-4.59109e-013	-1.49663e-012	-2.45609e-012	-3.2361e-012	-4.35912e-012	-5.20217e-012	-6.16389e-012	-7.21473e-012	-8.11025e-012	-9.02166e-012	-9.90877e-012	-1.0749e-011	-1.16283e-011	-1.24191e-011	-1.34943e-011	-1.42297e-011	-1.52262e-011	-1.58892e-011	-1.67012e-011	-1.76028e-011	-1.83589e-011	
CoarseR249	-3.11546e-013	-1.25891e-012	-2.31327e-012	-3.23673e-012	-4.15188e-012	-5.13206e-012	-6.09336e-012	-7.12545e-012	-8.02047e-012	-8.8432e-012	-9.76514e-012	-1.07705e-011	-1.15134e-011	-1.23623e-011	-1.32947e-011	-1.41072e-011	-1.51032e-011	-1.57892e-011	-1.66257e-011	-1.75494e-011	-1.83051e-011	
CoarseR250	-3.45287e-013	-1.19071e-012	-2.10723e-012	-3.23208e-012	-4.13001e-012	-4.97229e-012	-6.02295e-012	-6.91149e-012	-7.79937e-012	-8.75802e-012	-9.50841e-012	-1.04356e-011	-1.12201e-011	-1.22407e-011	-1.3085e-011	-1.40502e-011	-1.4822e-011	-1.56144e-011	-1.65443e-011	-1.74194e-011	-1.81592e-011	
CoarseR251	-1.48058e-013	-9.7646e-013	-1.93516e-012	-3.01756e-012	-4.05159e-012	-4.94854e-012	-5.83761e-012	-6.91686e-012	-7.7399e-012	-8.62096e-012	-9.44249e-012	-1.04886e-011	-1.12543e-011	-1.22699e-011	-1.30658e-011	-1.40308e-011	-1.48023e-011	-1.55529e-011	-1.64825e-011	-1.72156e-011	-1.81384e-011	
CoarseR252	-1.15989e-013	-1.03295e-012	-2.01567e-012	-2.91384e-012	-3.88108e-012	-4.87721e-012	-5.72542e-012	-6.78041e-012	-7.73931e-012	-8.53182e-012	-9.36998e-012	-1.03679e-011	-1.11101e-011	-1.20127e-011	-1.28962e-011	-1.37497e-011	-1.46634e-011	-1.53656e-011	-1.63117e-011	-1.71341e-011	-1.79433e-011	
CoarseR253	1.20714e-013	-8.67878e-013	-1.87336e-012	-2.84311e-012	-3.85222e-012	-4.65342e-012	-5.58385e-012	-6.66224e-012	-7.62066e-012	-8.51364e-012	-9.39248e-012	-1.01897e-011	-1.10839e-011	-1.19694e-011	-1.29819e-011	-1.37052e-011	-1.46289e-011	-1.53078e-011	-1.62367e-011	-1.70942e-011	-1.78685e-011	
CoarseR254	1.83012e-013	-7.75662e-013	-1.6268e-012	-2.73234e-012	-3.69354e-012	-4.58234e-012	-5.47196e-012	-6.54301e-012	-7.43652e-012	-8.32244e-012	-9.24954e-012	-1.01106e-011	-1.0869e-011	-1.16644e-011	-1.26599e-011	-1.35606e-011	-1.44426e-011	-1.51751e-011	-1.61457e-011	-1.69007e-011	-1.7722e-011	
CoarseR255	4.60949e-013	-5.9901e-013	-1.58097e-012	-2.47826e-012	-3.51085e-012	-4.44141e-012	-5.39374e-012	-6.35935e-012	-7.29336e-012	-8.11541e-012	-8.87378e-012	-9.78975e-012	-1.08198e-011	-1.16565e-011	-1.25389e-011	-1.33265e-011	-1.41786e-011	-1.51177e-011	-1.59688e-011	-1.67547e-011	-1.75157e-011	
CoarseR255	4.36316e-013	-6.18498e-013	-1.53361e-012	-2.42563e-012	-3.49832e-012	-4.3223e-012	-5.21009e-012	-6.28784e-012	-7.30129e-012	-8.10866e-012	-9.06495e-012	-9.94919e-012	-1.07386e-011	-1.17213e-011	-1.25932e-011	-1.34038e-011	-1.43268e-011	-1.51237e-011	-1.59268e-011	-1.67834e-011	-1.75089e-011	
CoarseR255	4.41261e-013	-6.13458e-013	-1.50404e-012	-2.49005e-012	-3.57e-012	-4.43429e-012	-5.28165e-012	-6.28915e-012	-7.24683e-012	-8.18004e-012	-8.94589e-012	-9.9197e-012	-1.06843e-011	-1.16565e-011	-1.24741e-011	-1.33265e-011	-1.43206e-011	-1.50467e-011	-1.58979e-011	-1.68965e-011	-1.7557e-011	
CoarseR255	3.93998e-013	-6.6581e-013	-1.65276e-012	-2.62172e-012	-3.51085e-012	-4.41729e-012	-5.3292e-012	-6.26393e-012	-7.20608e-012	-8.22772e-012	-8.95255e-012	-9.87135e-012	-1.0644e-011	-1.16796e-011	-1.26347e-011	-1.34455e-011	-1.43748e-011	-1.51008e-011	-1.59815e-011	-1.68804e-011	-1.76828e-011	
CoarseR255	3.89042e-013	-5.51687e-013	-1.58097e-012	-2.61442e-012	-3.62999e-012	-4.44141e-012	-5.35322e-012	-6.34237e-012	-7.22875e-012	-8.04984e-012	-8.9767e-012	-9.97348e-012	-1.07799e-011	-1.17044e-011	-1.26411e-011	-1.33745e-011	-1.43038e-011	-1.51242e-011	-1.59815e-011	-1.68323e-011	-1.76347e-011	
CoarseR255	3.64408e-013	-5.9901e-013	-1.62833e-012	-2.5974e-012	-3.55831e-012	-4.44141e-012	-5.33623e-012	-6.41386e-012	-7.23559e-012	-8.18004e-012	-8.99362e-012	-9.99697e-012	-1.07864e-011	-1.17044e-011	-1.26411e-011	-1.32555e-011	-1.42976e-011	-1.50532e-011	-1.60296e-011	-1.68323e-011	-1.77055e-011	
MinCout:	-1.15989e-013	CoarseR:	252	CoarseC:	80

	FineC0	FineC10	FineC20	FineC30	FineC40	FineC50	FineC60	FineC70	FineC80	FineC90	FineC100	FineC110	FineC120	FineC130	FineC140	FineC150	FineC160	FineC170	FineC180	FineC190	FineC200	FineC210	FineC220	FineC230	FineC240	FineC250	
FineR0	1.73859e-011	1.4981e-011	1.21608e-011	8.1477e-012	4.35748e-012	8.7642e-013	-1.97971e-012	-4.30146e-012	-6.22235e-012	-7.82782e-012	-9.13195e-012	-1.02546e-011	-1.13005e-011	-1.22293e-011	-1.30018e-011	-1.37526e-011	-1.42033e-011	-1.47745e-011	-1.51715e-011	-1.5562e-011	-1.58887e-011	-1.61602e-011	-1.65195e-011	-1.67202e-011	-1.69299e-011	-1.70269e-011	
FineR10	1.75898e-011	1.54402e-011	1.26016e-011	9.08077e-012	5.21166e-012	1.68804e-012	-1.27743e-012	-3.61372e-012	-5.46324e-012	-7.0575e-012	-8.32724e-012	-9.62381e-012	-1.05942e-011	-1.14478e-011	-1.22653e-011	-1.29583e-011	-1.35328e-011	-1.41017e-011	-1.44901e-011	-1.49087e-011	-1.52103e-011	-1.56647e-011	-1.58085e-011	-1.60949e-011	-1.62459e-011	-1.63418e-011	
FineR20	1.77238e-011	1.54637e-011	1.2735e-011	9.38469e-012	5.37406e-012	1.83756e-012	-9.87277e-013	-3.17715e-012	-5.23137e-012	-6.82856e-012	-8.14405e-012	-9.27188e-012	-1.04251e-011	-1.11161e-011	-1.20219e-011	-1.2697e-011	-1.32639e-011	-1.37836e-011	-1.43687e-011	-1.46506e-011	-1.50325e-011	-1.53501e-011	-1.55714e-011	-1.57563e-011	-1.60496e-011	-1.62579e-011	
FineR30	1.76199e-011	1.55929e-011	1.28671e-011	9.41093e-012	5.52149e-012	2.03721e-012	-7.38684e-013	-3.06304e-012	-5.09316e-012	-6.61758e-012	-8.02689e-012	-9.0587e-012	-1.01691e-011	-1.10372e-011	-1.17645e-011	-1.25269e-011	-1.30285e-011	-1.35958e-011	-1.41322e-011	-1.45681e-011	-1.49562e-011	-1.51838e-011	-1.55108e-011	-1.57092e-011	-1.60596e-011	-1.6155e-011	
FineR40	1.77024e-011	1.55295e-011	1.29447e-011	9.54225e-012	5.64354e-012	2.19001e-012	-8.20945e-013	-3.1506e-012	-4.9946e-012	-6.62512e-012	-7.99817e-012	-9.20735e-012	-1.0181e-011	-1.11261e-011	-1.17337e-011	-1.24726e-011	-1.30867e-011	-1.36538e-011	-1.41186e-011	-1.4322e-011	-1.48525e-011	-1.52892e-011	-1.54321e-011	-1.56467e-011	-1.60037e-011	-1.6099e-011	
FineR50	1.7582e-011	1.54277e-011	1.28174e-011	9.58444e-012	5.76524e-012	2.16941e-012	-8.00434e-013	-3.07609e-012	-4.87214e-012	-6.67388e-012	-7.99342e-012	-9.1126e-012	-1.00625e-011	-1.09777e-011	-1.17924e-011	-1.24182e-011	-1.31747e-011	-1.35508e-011	-1.4135e-011	-1.44578e-011	-1.48686e-011	-1.51856e-011	-1.54064e-011	-1.58531e-011	-1.58835e-011	-1.6234e-011	
FineR60	1.76893e-011	1.54942e-011	1.27943e-011	9.65048e-012	5.7438e-012	2.16674e-012	-7.26676e-013	-3.00584e-012	-5.00967e-012	-6.6923e-012	-8.08275e-012	-9.11329e-012	-1.02165e-011	-1.10184e-011	-1.17384e-011	-1.24351e-011	-1.30073e-011	-1.36452e-011	-1.40568e-011	-1.44508e-011	-1.48385e-011	-1.51071e-011	-1.54707e-011	-1.56618e-011	-1.58764e-011	-1.61555e-011	
FineR70	1.75573e-011	1.5548e-011	1.28689e-011	9.74352e-012	5.81202e-012	2.23552e-012	-6.55276e-013	-3.04821e-012	-4.9332e-012	-6.66958e-012	-7.97037e-012	-9.14866e-012	-1.01452e-011	-1.09953e-011	-1.18162e-011	-1.2364e-011	-1.29942e-011	-1.35673e-011	-1.39374e-011	-1.44671e-011	-1.48546e-011	-1.52014e-011	-1.53924e-011	-1.56547e-011	-1.5821e-011	-1.60287e-011	
FineR80	1.75508e-011	1.55509e-011	1.27971e-011	9.77141e-012	5.81558e-012	2.16814e-012	-7.9358e-013	-3.11472e-012	-4.8924e-012	-6.52812e-012	-7.95825e-012	-9.03621e-012	-1.01452e-011	-1.08762e-011	-1.16905e-011	-1.23574e-011	-1.28998e-011	-1.36088e-011	-1.40798e-011	-1.44671e-011	-1.47834e-011	-1.50749e-011	-1.52955e-011	-1.55993e-011	-1.58918e-011	-1.60995e-011	
FineR90	1.75723e-011	1.55453e-011	1.28641e-011	9.86443e-012	5.86211e-012	2.29043e-012	-6.70697e-013	-2.97377e-012	-4.97603e-012	-6.46873e-012	-7.88787e-012	-9.05397e-012	-1.00038e-011	-1.09479e-011	-1.16132e-011	-1.24288e-011	-1.29711e-011	-1.35606e-011	-1.39373e-011	-1.43956e-011	-1.47119e-011	-1.51162e-011	-1.52655e-011	-1.57419e-011	-1.58135e-011	-1.60511e-011	
FineR100	1.75096e-011	1.53559e-011	1.2867e-011	9.86035e-012	5.78726e-012	2.29043e-012	-6.70697e-013	-2.92659e-012	-4.81083e-012	-6.54002e-012	-7.88226e-012	-8.95986e-012	-9.94951e-012	-1.08223e-011	-1.16132e-011	-1.23032e-011	-1.28453e-011	-1.34116e-011	-1.38825e-011	-1.42694e-011	-1.47349e-011	-1.50516e-011	-1.52652e-011	-1.5599e-011	-1.57418e-011	-1.59082e-011	
FineR110	1.76481e-011	1.5575e-011	1.29128e-011	9.84507e-012	5.86232e-012	2.29448e-012	-6.01483e-013	-3.04027e-012	-4.88214e-012	-6.58861e-012	-7.83469e-012	-8.97692e-012	-1.0086e-011	-1.08874e-011	-1.1607e-011	-1.22735e-011	-1.29166e-011	-1.33403e-011	-1.38758e-011	-1.42694e-011	-1.46568e-011	-1.50447e-011	-1.53298e-011	-1.5486e-011	-1.58293e-011	-1.5931e-011	
FineR120	1.76926e-011	1.55058e-011	1.28882e-011	9.74089e-012	5.86232e-012	2.28774e-012	-6.19232e-013	-2.99968e-012	-4.81227e-012	-6.46988e-012	-7.76343e-012	-8.92924e-012	-1.00213e-011	-1.1013e-011	-1.16847e-011	-1.22321e-011	-1.29166e-011	-1.35771e-011	-1.40729e-011	-1.43407e-011	-1.47829e-011	-1.50447e-011	-1.53364e-011	-1.5599e-011	-1.57718e-011	-1.60507e-011	
FineR130	1.75756e-011	1.55694e-011	1.2867e-011	9.76633e-012	5.83046e-012	2.21631e-012	-6.79493e-013	-3.04685e-012	-5.00218e-012	-6.52386e-012	-7.88877e-012	-9.12591e-012	-1.01463e-011	-1.09651e-011	-1.17973e-011	-1.23744e-011	-1.29943e-011	-1.34893e-011	-1.40248e-011	-1.43472e-011	-1.47347e-011	-1.51159e-011	-1.52652e-011	-1.56768e-011	-1.5813e-011	-1.59794e-011	
FineR140	1.75756e-011	1.54521e-011	1.28164e-011	9.80541e-012	5.86232e-012	2.28774e-012	-7.15365e-013	-2.92835e-012	-4.76495e-012	-6.39861e-012	-7.81752e-012	-9.0253e-012	-1.00925e-011	-1.08878e-011	-1.16782e-011	-1.23745e-011	-1.29232e-011	-1.35059e-011	-1.38824e-011	-1.42692e-011	-1.46634e-011	-1.50743e-011	-1.53847e-011	-1.56698e-011	-1.58843e-011	-1.59565e-011	
FineR150	1.74586e-011	1.5575e-011	1.28882e-011	9.95274e-012	5.80893e-012	2.30564e-012	-7.19851e-013	-2.98211e-012	-4.93089e-012	-6.42779e-012	-7.81752e-012	-9.09654e-012	-1.00278e-011	-1.09651e-011	-1.17392e-011	-1.24058e-011	-1.29711e-011	-1.34828e-011	-1.40499e-011	-1.44502e-011	-1.48311e-011	-1.51708e-011	-1.53431e-011	-1.57481e-011	-1.58197e-011	-1.60986e-011	
FineR160	1.74932e-011	1.538e-011	1.28164e-011	9.83084e-012	5.85545e-012	2.09811e-012	-6.14772e-013	-2.93494e-012	-4.81883e-012	-6.61243e-012	-7.76994e-012	-9.00825e-012	-9.96254e-012	-1.09004e-011	-1.18104e-011	-1.24058e-011	-1.29297e-011	-1.35606e-011	-1.40729e-011	-1.4425e-011	-1.49089e-011	-1.52486e-011	-1.55338e-011	-1.5796e-011	-1.59622e-011	-1.61765e-011	
FineR170	1.74076e-011	1.54436e-011	1.27446e-011	9.84451e-012	5.84858e-012	2.08874e-012	-7.99991e-013	-3.07757e-012	-4.96139e-012	-6.4764e-012	-7.96002e-012	-9.10304e-012	-1.0218e-011	-1.10133e-011	-1.162e-011	-1.24458e-011	-1.30424e-011	-1.34959e-011	-1.39371e-011	-1.43538e-011	-1.47412e-011	-1.50513e-011	-1.53844e-011	-1.57181e-011	-1.57968e-011	-1.60986e-011	
FineR180	1.75971e-011	1.55241e-011	1.28088e-011	9.75922e-012	5.85545e-012	2.20958e-012	-7.93364e-013	-3.12475e-012	-4.95486e-012	-6.50021e-012	-7.90684e-012	-9.04887e-012	-1.00278e-011	-1.10133e-011	-1.18039e-011	-1.23513e-011	-1.29297e-011	-1.35125e-011	-1.39371e-011	-1.43952e-011	-1.47182e-011	-1.51938e-011	-1.53844e-011	-1.56698e-011	-1.5813e-011	-1.60273e-011	
FineR190	1.75212e-011	1.55127e-011	1.26912e-011	9.81251e-012	5.80893e-012	2.27695e-012	-7.02123e-013	-3.05343e-012	-4.96652e-012	-6.52386e-012	-7.94285e-012	-9.18008e-012	-1.01468e-011	-1.09482e-011	-1.16263e-011	-1.2477e-011	-1.30489e-011	-1.35671e-011	-1.40083e-011	-1.43308e-011	-1.48311e-011	-1.51062e-011	-1.5398e-011	-1.56352e-011	-1.57485e-011	-1.59861e-011	
FineR200	1.75311e-011	1.53983e-011	1.2763e-011	9.84858e-012	5.78395e-012	2.20286e-012	-6.86126e-013	-3.06001e-012	-4.89011e-012	-6.48293e-012	-7.94285e-012	-8.96058e-012	-1.00521e-011	-1.09961e-011	-1.16677e-011	-1.24354e-011	-1.29777e-011	-1.34662e-011	-1.39852e-011	-1.44436e-011	-1.46953e-011	-1.51295e-011	-1.52489e-011	-1.55827e-011	-1.59164e-011	-1.59632e-011	
FineR210	1.76036e-011	1.55212e-011	1.28059e-011	9.75922e-012	5.83392e-012	2.18745e-012	-7.2649e-013	-3.10061e-012	-5.00732e-012	-6.52386e-012	-7.96651e-012	-9.10885e-012	-1.00338e-011	-1.09482e-011	-1.17392e-011	-1.23642e-011	-1.29777e-011	-1.34313e-011	-1.39207e-011	-1.44502e-011	-1.48675e-011	-1.51062e-011	-1.53983e-011	-1.57318e-011	-1.59393e-011	-1.60824e-011	
FineR220	1.74042e-011	1.54039e-011	1.28059e-011	9.84858e-012	5.80893e-012	2.18745e-012	-7.08775e-013	-2.98211e-012	-4.89524e-012	-6.55305e-012	-7.94285e-012	-9.03762e-012	-1.00756e-011	-1.08123e-011	-1.15968e-011	-1.23346e-011	-1.29777e-011	-1.34728e-011	-1.39305e-011	-1.43954e-011	-1.47665e-011	-1.50582e-011	-1.5456e-011	-1.56056e-011	-1.58197e-011	-1.60986e-011	
FineR230	1.75212e-011	1.55395e-011	1.28396e-011	9.9202e-012	5.80893e-012	2.16281e-012	-5.90419e-013	-3.03414e-012	-4.8e-012	-6.60053e-012	-7.91919e-012	-9.0853e-012	-1.01228e-011	-1.09727e-011	-1.17868e-011	-1.24057e-011	-1.29777e-011	-1.3544e-011	-1.39919e-011	-1.42596e-011	-1.4838e-011	-1.51065e-011	-1.52972e-011	-1.56539e-011	-1.57555e-011	-1.60116e-011	
FineR240	1.76218e-011	1.55395e-011	1.29037e-011	9.88111e-012	5.87689e-012	2.16547e-012	-6.30758e-013	-2.95797e-012	-4.82395e-012	-6.41052e-012	-7.94196e-012	-9.09112e-012	-1.02175e-011	-1.09961e-011	-1.18583e-011	-1.24122e-011	-1.31035e-011	-1.35025e-011	-1.39438e-011	-1.44502e-011	-1.48446e-011	-1.51777e-011	-1.53754e-011	-1.55893e-011	-1.5898e-011	-1.60345e-011	
FineR250	1.76003e-011	1.54674e-011	1.28396e-011	9.88111e-012	5.90186e-012	2.16547e-012	-7.02123e-013	-2.98695e-012	-4.91206e-012	-6.52926e-012	-7.96563e-012	-9.18008e-012	-1.01528e-011	-1.10026e-011	-1.17224e-011	-1.23642e-011	-1.30554e-011	-1.35506e-011	-1.40795e-011	-1.4402e-011	-1.4861e-011	-1.50648e-011	-1.5398e-011	-1.56835e-011	-1.58334e-011	-1.60345e-011	
MinCout:	-5.90419e-013	FineR:	230	FineC:	60

	FineC30	FineC31	FineC32	FineC33	FineC34	FineC35	FineC36	FineC37	FineC38	FineC39	FineC40	FineC41	FineC42	FineC43	FineC44	FineC45	FineC46	FineC47	FineC48	FineC49	FineC50	
FineR120	1.00493e-011	9.52504e-012	9.16893e-012	8.72328e-012	8.27754e-012	7.89305e-012	7.52559e-012	6.97967e-012	6.72991e-012	6.23706e-012	5.88022e-012	5.512e-012	5.16169e-012	4.66819e-012	4.32811e-012	4.0916e-012	3.5368e-012	3.23233e-012	2.86702e-012	2.53764e-012	2.23959e-012	
FineR121	9.8852e-012	9.59361e-012	9.17597e-012	8.72012e-012	8.39547e-012	7.9285e-012	7.59021e-012	7.12279e-012	6.81961e-012	6.19056e-012	5.90521e-012	5.44048e-012	5.13677e-012	4.62157e-012	4.36415e-012	3.99531e-012	3.57669e-012	3.13612e-012	2.90699e-012	2.60508e-012	2.30428e-012	
FineR122	9.85673e-012	9.5753e-012	9.12265e-012	8.81315e-012	8.38529e-012	8.01102e-012	7.52559e-012	7.02612e-012	6.723e-012	6.23017e-012	5.73718e-012	5.55856e-012	5.06526e-012	4.6719e-012	4.32127e-012	4.02394e-012	3.47212e-012	3.23913e-012	2.90979e-012	2.53362e-012	2.28213e-012	
FineR123	9.92838e-012	9.45035e-012	9.05103e-012	8.59519e-012	8.38529e-012	7.89305e-012	7.51864e-012	6.97967e-012	6.723e-012	6.23017e-012	5.81202e-012	5.50513e-012	5.09018e-012	4.69306e-012	4.25284e-012	4.02012e-012	3.46532e-012	3.27905e-012	2.93451e-012	2.6833e-012	2.1928e-012	
FineR124	1.00421e-011	9.63986e-012	9.16893e-012	8.72328e-012	8.46388e-012	7.98983e-012	7.73335e-012	7.2013e-012	6.755e-012	6.3017e-012	5.88022e-012	5.58352e-012	5.18661e-012	4.78944e-012	4.2062e-012	3.90196e-012	3.55477e-012	3.25708e-012	2.92772e-012	2.48685e-012	2.18873e-012	
FineR125	9.78508e-012	9.45035e-012	9.00475e-012	8.78471e-012	8.45688e-012	7.84667e-012	7.5438e-012	7.05123e-012	6.74807e-012	6.20869e-012	5.87667e-012	5.53696e-012	5.09704e-012	4.54633e-012	4.3175e-012	3.81246e-012	3.50813e-012	3.16087e-012	2.85627e-012	2.48685e-012	2.28891e-012	
FineR126	9.92838e-012	9.55445e-012	9.04791e-012	8.66679e-012	8.27433e-012	7.84667e-012	7.5438e-012	7.1194e-012	6.63005e-012	6.33015e-012	5.90856e-012	5.38706e-012	5.04359e-012	4.55007e-012	4.25284e-012	3.83048e-012	3.59758e-012	3.23233e-012	2.88098e-012	2.5583e-012	2.18198e-012	
FineR127	9.7643e-012	9.54428e-012	9.11954e-012	8.65278e-012	8.31781e-012	7.84667e-012	7.50435e-012	7.12635e-012	6.63697e-012	6.21209e-012	5.86558e-012	5.46183e-012	5.04359e-012	4.55007e-012	4.25284e-012	3.90196e-012	3.59758e-012	3.2284e-012	2.92772e-012	2.5583e-012	2.25342e-012	
FineR128	9.88217e-012	9.45486e-012	8.95533e-012	8.62046e-012	8.1494e-012	7.72871e-012	7.35425e-012	6.8978e-012	6.4835e-012	6.06211e-012	5.7586e-012	5.33687e-012	4.89374e-012	4.42513e-012	4.12788e-012	3.64083e-012	3.33646e-012	3.08263e-012	2.65985e-012	2.36187e-012	1.99638e-012	
FineR129	9.61853e-012	9.11503e-012	8.80506e-012	8.30923e-012	8.12128e-012	7.62897e-012	7.22933e-012	6.85135e-012	6.43358e-012	6.06211e-012	5.71206e-012	5.26898e-012	4.84714e-012	4.35364e-012	4.0564e-012	3.64083e-012	3.40794e-012	3.15408e-012	2.80952e-012	2.36187e-012	2.11053e-012	
FineR130	9.62566e-012	9.19372e-012	8.79113e-012	8.48149e-012	8.19987e-012	7.51798e-012	7.33299e-012	6.85827e-012	6.65512e-012	6.10862e-012	5.68708e-012	5.34049e-012	5.01183e-012	4.55007e-012	4.17453e-012	3.89514e-012	3.45853e-012	2.97122e-012	2.85627e-012	2.48009e-012	2.11461e-012	
FineR131	9.75719e-012	9.38323e-012	8.80821e-012	8.50254e-012	8.12828e-012	7.80029e-012	7.49738e-012	6.93323e-012	6.55851e-012	6.18366e-012	5.69065e-012	5.39392e-012	4.96524e-012	4.50345e-012	4.27085e-012	3.90196e-012	3.52611e-012	3.11415e-012	2.85627e-012	2.5583e-012	2.11727e-012	
FineR132	9.94669e-012	9.47573e-012	9.11249e-012	8.66679e-012	8.33893e-012	7.80029e-012	7.35425e-012	6.97967e-012	6.63005e-012	6.20869e-012	5.7586e-012	5.34049e-012	4.92549e-012	4.57121e-012	4.2024e-012	3.92677e-012	3.43952e-012	3.18167e-012	2.81231e-012	2.3933e-012	2.08837e-012	
FineR133	9.75719e-012	9.46557e-012	8.99458e-012	8.54886e-012	8.24622e-012	7.80029e-012	7.35425e-012	7.04784e-012	6.63005e-012	6.2517e-012	5.78358e-012	5.40838e-012	5.03306e-012	4.56436e-012	4.17074e-012	3.82366e-012	3.38317e-012	3.10736e-012	2.66661e-012	2.36862e-012	2.20661e-012	
FineR134	9.84963e-012	9.4041e-012	9.04088e-012	8.64151e-012	8.26734e-012	7.86488e-012	7.41886e-012	6.93323e-012	6.63005e-012	6.07252e-012	5.7586e-012	5.34049e-012	5.08333e-012	4.5681e-012	4.12788e-012	3.82366e-012	3.4765e-012	3.08263e-012	2.71336e-012	2.50476e-012	2.13926e-012	
FineR135	9.84963e-012	9.37166e-012	9.10545e-012	8.64151e-012	8.26734e-012	7.72871e-012	7.42582e-012	7.02274e-012	6.58358e-012	6.13716e-012	5.83013e-012	5.45857e-012	4.96524e-012	4.52146e-012	4.0564e-012	3.75219e-012	3.45464e-012	3.00722e-012	2.80274e-012	2.50476e-012	2.13926e-012	
FineR136	9.77799e-012	9.44021e-012	9.04791e-012	8.66679e-012	8.27111e-012	7.84339e-012	7.54047e-012	6.97628e-012	6.69815e-012	6.18016e-012	5.85511e-012	5.53335e-012	5.03992e-012	4.55007e-012	4.0594e-012	3.7838e-012	3.45464e-012	3.08546e-012	2.73807e-012	2.36187e-012	2.13517e-012	
FineR137	9.80341e-012	9.37872e-012	8.97629e-012	8.66679e-012	8.33893e-012	7.77509e-012	7.49042e-012	7.0409e-012	6.69122e-012	6.13364e-012	5.7586e-012	5.36544e-012	4.91864e-012	4.57121e-012	4.19557e-012	3.8913e-012	3.47941e-012	3.10736e-012	2.76277e-012	2.54751e-012	2.13517e-012	
FineR138	9.73177e-012	9.44728e-012	9.04791e-012	8.66362e-012	8.2389e-012	7.8397e-012	7.49405e-012	6.92983e-012	6.63005e-012	6.18016e-012	5.7586e-012	5.26898e-012	4.96156e-012	4.56436e-012	4.12408e-012	3.83048e-012	3.45464e-012	3.17881e-012	2.7313e-012	2.36187e-012	2.11727e-012	
FineR139	9.84963e-012	9.5149e-012	9.09028e-012	8.75944e-012	8.3137e-012	7.87186e-012	7.47223e-012	7.05123e-012	6.63005e-012	6.18366e-012	5.76217e-012	5.53008e-012	5.04359e-012	4.69306e-012	4.34919e-012	3.90196e-012	3.66906e-012	3.18561e-012	2.92772e-012	2.62976e-012	2.33163e-012	
FineR140	9.92838e-012	9.45035e-012	9.11954e-012	8.73839e-012	8.48211e-012	7.85364e-012	7.56895e-012	7.02274e-012	6.69466e-012	6.20869e-012	5.75172e-012	5.34049e-012	5.07967e-012	4.57495e-012	4.19937e-012	3.96661e-012	3.47941e-012	3.15693e-012	2.88098e-012	2.48282e-012	2.06373e-012	
MinCout:	1.99638e-012	FineR:	128	FineC:	50

