	CoarseC0	CoarseC10	CoarseC20	CoarseC30	CoarseC40	CoarseC50	CoarseC60	CoarseC70	CoarseC80	CoarseC90	CoarseC100	CoarseC110	CoarseC120	CoarseC130	CoarseC140	CoarseC150	CoarseC160	CoarseC170	CoarseC180	CoarseC190	CoarseC200	CoarseC210	CoarseC220	CoarseC230	CoarseC240	CoarseC250	
CoarseR0	-5.09428e-010	-4.81529e-010	-4.62298e-010	-4.47153e-010	-4.35091e-010	-4.25705e-010	-4.18818e-010	-4.13356e-010	-4.08978e-010	-4.05918e-010	-4.03497e-010	-4.01694e-010	-4.00511e-010	-3.99568e-010	-3.99324e-010	-3.99094e-010	-3.98895e-010	-3.99602e-010	-4.0089e-010	-4.02408e-010	-4.04051e-010	-4.05358e-010	-4.0649e-010	-4.07418e-010	-4.08186e-010	-4.08678e-010	
CoarseR10	-3.77656e-010	-3.5302e-010	-3.35646e-010	-3.22168e-010	-3.11598e-010	-3.03546e-010	-2.97132e-010	-2.92043e-010	-2.8803e-010	-2.8524e-010	-2.83261e-010	-2.8201e-010	-2.8146e-010	-2.82328e-010	-2.83931e-010	-2.85523e-010	-2.87416e-010	-2.89549e-010	-2.91676e-010	-2.93699e-010	-2.9588e-010	-2.97816e-010	-2.99682e-010	-3.01408e-010	-3.02964e-010	-3.04228e-010	
CoarseR20	-2.856e-010	-2.63094e-010	-2.47449e-010	-2.35236e-010	-2.25369e-010	-2.17774e-010	-2.1156e-010	-2.06886e-010	-2.03332e-010	-2.01567e-010	-2.01261e-010	-2.01528e-010	-2.02515e-010	-2.03795e-010	-2.05756e-010	-2.07839e-010	-2.10154e-010	-2.12893e-010	-2.15449e-010	-2.18304e-010	-2.21135e-010	-2.24014e-010	-2.26805e-010	-2.29488e-010	-2.32249e-010	-2.34891e-010	
CoarseR30	-2.19443e-010	-1.97079e-010	-1.82478e-010	-1.70767e-010	-1.6132e-010	-1.54119e-010	-1.48445e-010	-1.45021e-010	-1.42958e-010	-1.42152e-010	-1.42078e-010	-1.42673e-010	-1.43996e-010	-1.45619e-010	-1.47976e-010	-1.50552e-010	-1.53384e-010	-1.56787e-010	-1.60236e-010	-1.63876e-010	-1.67866e-010	-1.71849e-010	-1.7616e-010	-1.81263e-010	-1.8677e-010	-1.91539e-010	
CoarseR40	-1.67008e-010	-1.46002e-010	-1.32327e-010	-1.21101e-010	-1.11972e-010	-1.05668e-010	-1.01338e-010	-9.85626e-011	-9.6645e-011	-9.59705e-011	-9.60728e-011	-9.69565e-011	-9.85987e-011	-1.00668e-010	-1.03562e-010	-1.06864e-010	-1.10479e-010	-1.14758e-010	-1.19292e-010	-1.24405e-010	-1.30502e-010	-1.37824e-010	-1.44312e-010	-1.50137e-010	-1.55485e-010	-1.60092e-010	
CoarseR50	-1.26589e-010	-1.07523e-010	-9.35024e-011	-8.28748e-011	-7.40552e-011	-6.84087e-011	-6.4174e-011	-6.1503e-011	-5.97254e-011	-5.93313e-011	-5.97785e-011	-6.09537e-011	-6.29596e-011	-6.55922e-011	-6.91809e-011	-7.33318e-011	-7.79562e-011	-8.36346e-011	-9.07097e-011	-9.92307e-011	-1.06942e-010	-1.1389e-010	-1.20044e-010	-1.25516e-010	-1.3056e-010	-1.34754e-010	
CoarseR60	-9.44963e-011	-7.5707e-011	-6.24508e-011	-5.24121e-011	-4.48115e-011	-3.91998e-011	-3.39445e-011	-3.12519e-011	-2.97486e-011	-2.96005e-011	-3.0381e-011	-3.20303e-011	-3.45008e-011	-3.76742e-011	-4.21933e-011	-4.74211e-011	-5.39706e-011	-6.34755e-011	-7.22594e-011	-8.02721e-011	-8.75147e-011	-9.40545e-011	-9.98672e-011	-1.05086e-010	-1.09935e-010	-1.14072e-010	
CoarseR70	2.93404e-010	-4.95501e-011	-3.67866e-011	-2.70557e-011	-1.94167e-011	-1.39587e-011	-1.03045e-011	-7.79962e-012	-4.90069e-012	-4.99932e-012	-6.19585e-012	-8.30405e-012	-1.13253e-011	-1.53806e-011	-2.09706e-011	-2.91193e-011	-3.89981e-011	-4.82358e-011	-5.66365e-011	-6.40965e-011	-7.09074e-011	-7.70335e-011	-8.26816e-011	-8.7726e-011	-9.23118e-011	-9.62339e-011	
CoarseR80	3.06067e-010	3.19079e-010	-1.57771e-011	-5.8496e-012	1.83111e-012	7.05068e-012	1.09641e-011	1.32398e-011	1.43582e-011	1.40405e-011	1.38466e-011	1.13043e-011	7.54633e-012	2.30722e-012	-6.44504e-012	-1.68641e-011	-2.62019e-011	-3.48567e-011	-4.27122e-011	-4.98482e-011	-5.63813e-011	-6.23159e-011	-6.75506e-011	-7.25668e-011	-7.7006e-011	-8.08561e-011	
CoarseR90	1.54715e-009	7.92304e-010	4.09131e-010	1.20597e-011	1.97669e-011	2.49329e-011	2.8667e-011	3.08558e-011	3.19749e-011	3.12299e-011	2.92637e-011	2.75669e-011	2.27782e-011	1.46082e-011	3.89429e-012	-5.89456e-012	-1.47561e-011	-2.30983e-011	-3.06398e-011	-3.73023e-011	-4.37739e-011	-4.93835e-011	-5.45553e-011	-5.9166e-011	-6.35375e-011	-6.7255e-011	
CoarseR100	5.0441e-010	5.60653e-010	6.15988e-010	6.30036e-010	3.49074e-011	4.02115e-011	4.39485e-011	4.59318e-011	4.68174e-011	4.59604e-011	4.37035e-011	3.99701e-011	3.41871e-011	2.37237e-011	1.34758e-011	4.16873e-012	-4.29101e-012	-1.23509e-011	-1.94916e-011	-2.60036e-011	-3.21788e-011	-3.7631e-011	-4.27817e-011	-4.73143e-011	-5.14778e-011	-5.52335e-011	
CoarseR110	4.65487e-010	5.04719e-010	4.9948e-010	5.71347e-010	4.76723e-011	5.30684e-011	5.66617e-011	5.8887e-011	5.953e-011	5.81823e-011	5.55924e-011	5.07274e-011	4.2238e-011	3.20436e-011	2.22234e-011	1.31774e-011	5.17662e-012	-2.63075e-012	-9.55292e-012	-1.57768e-011	-2.18568e-011	-2.70963e-011	-3.20523e-011	-3.65657e-011	-4.06919e-011	-4.4381e-011	
CoarseR120	4.28827e-010	4.73077e-010	4.85328e-010	5.22707e-010	5.86148e-011	6.40287e-011	6.77677e-011	6.96908e-011	7.03058e-011	6.90204e-011	6.58979e-011	5.92007e-011	4.94263e-011	3.98104e-011	3.04565e-011	2.17916e-011	1.39141e-011	6.41504e-012	-3.2299e-013	-6.54042e-012	-1.24194e-011	-1.75771e-011	-2.2517e-011	-2.68138e-011	-3.09467e-011	-3.45227e-011	
CoarseR130	3.77926e-010	4.2548e-010	3.88407e-010	4.51727e-010	6.64648e-011	7.19032e-011	7.55966e-011	7.76529e-011	7.83778e-011	7.67096e-011	7.32852e-011	6.44482e-011	5.64795e-011	4.70061e-011	3.8005e-011	2.96812e-011	2.20656e-011	1.46823e-011	8.08991e-012	2.04905e-012	-3.57656e-012	-8.78747e-012	-1.34443e-011	-1.78683e-011	-2.20033e-011	-2.56236e-011	
CoarseR140	2.98558e-010	3.67277e-010	3.67678e-010	4.34917e-010	7.4712e-011	8.02262e-011	8.41863e-011	8.61867e-011	8.67197e-011	8.50315e-011	8.05176e-011	7.06187e-011	6.30126e-011	5.38538e-011	4.49545e-011	3.68421e-011	2.93761e-011	2.23881e-011	1.59225e-011	9.99635e-012	4.29296e-012	-6.91767e-013	-5.476e-012	-9.65542e-012	-1.37415e-011	-1.72724e-011	
CoarseR150	3.29537e-010	3.4003e-010	3.77313e-010	3.95715e-010	8.15998e-011	8.73219e-011	9.12827e-011	9.35153e-011	9.40443e-011	9.2332e-011	8.67636e-011	7.68024e-011	6.9197e-011	6.03472e-011	5.16804e-011	4.36842e-011	3.64144e-011	2.94375e-011	2.31057e-011	1.71972e-011	1.1698e-011	6.67782e-012	1.99959e-012	-2.22875e-012	-6.22726e-012	-9.8141e-012	
CoarseR160	2.8423e-010	2.86799e-010	3.25191e-010	3.65046e-010	8.74777e-011	9.33227e-011	9.73847e-011	9.99401e-011	1.00464e-010	9.87326e-011	9.24825e-011	8.37588e-011	7.50181e-011	6.63957e-011	5.79322e-011	5.01464e-011	4.30393e-011	3.60832e-011	2.98989e-011	2.39863e-011	1.86965e-011	1.36686e-011	8.95855e-012	4.79919e-012	7.81733e-013	-2.80378e-012	
CoarseR170	2.75949e-010	3.12712e-010	3.06286e-010	3.11755e-010	9.2353e-011	9.83688e-011	1.02681e-010	1.05167e-010	1.06065e-010	1.04307e-010	9.73695e-011	8.94708e-011	8.03455e-011	7.19489e-011	6.37533e-011	5.60341e-011	4.90209e-011	4.22585e-011	3.61182e-011	3.02994e-011	2.48838e-011	1.98713e-011	1.5366e-011	1.10748e-011	7.13114e-012	3.55672e-012	
CoarseR180	2.7445e-010	2.892e-010	2.98671e-010	3.34303e-010	9.65553e-011	1.02782e-010	1.07228e-010	1.09926e-010	1.10927e-010	1.09312e-010	1.02234e-010	9.4533e-011	8.55765e-011	7.73756e-011	6.91525e-011	6.16107e-011	5.46391e-011	4.78951e-011	4.18298e-011	3.61285e-011	3.07567e-011	2.57144e-011	2.11437e-011	1.68778e-011	1.292e-011	9.28882e-012	
CoarseR190	2.49122e-010	2.76857e-010	2.82718e-010	9.12705e-011	1.00144e-010	1.06445e-010	1.11088e-010	1.14058e-010	1.1529e-010	1.1383e-010	1.06767e-010	9.91258e-011	9.03632e-011	8.23127e-011	7.43254e-011	6.67059e-011	5.98697e-011	5.31495e-011	4.7132e-011	4.13368e-011	3.60483e-011	3.11246e-011	2.6605e-011	2.21899e-011	1.82638e-011	1.4667e-011	
CoarseR200	2.4831e-010	2.61556e-010	3.0789e-010	9.3983e-011	1.0294e-010	1.09711e-010	1.14425e-010	1.17587e-010	1.19031e-010	1.17912e-010	1.11143e-010	1.03451e-010	9.47461e-011	8.67433e-011	7.88305e-011	7.14047e-011	6.4591e-011	5.7858e-011	5.1857e-011	4.622e-011	4.11265e-011	3.59161e-011	3.13832e-011	2.7138e-011	2.30898e-011	1.94382e-011	
CoarseR210	2.76282e-010	2.93092e-010	3.06339e-010	9.60933e-011	1.05247e-010	1.12081e-010	1.17213e-010	1.20534e-010	1.22205e-010	1.21246e-010	1.15088e-010	1.0741e-010	9.89555e-011	9.09038e-011	8.30509e-011	7.57009e-011	6.89801e-011	6.22658e-011	5.62859e-011	5.05779e-011	4.51813e-011	4.03826e-011	3.57226e-011	3.14423e-011	2.74106e-011	2.38187e-011	
CoarseR220	2.82186e-010	3.08342e-010	3.26077e-010	9.76324e-011	1.07118e-010	1.14049e-010	1.19499e-010	1.2312e-010	1.24903e-010	1.24285e-010	1.18635e-010	1.11163e-010	1.02662e-010	9.48397e-011	8.69255e-011	7.95361e-011	7.28337e-011	6.6142e-011	6.01176e-011	5.45595e-011	4.91917e-011	4.42027e-011	3.96168e-011	3.5353e-011	3.12893e-011	2.7579e-011	
CoarseR230	2.8627e-010	3.14307e-010	3.43527e-010	9.8803e-011	1.08438e-010	1.15725e-010	1.21313e-010	1.25126e-010	1.27289e-010	1.26884e-010	1.21948e-010	1.14607e-010	1.06171e-010	9.82634e-011	9.06476e-011	8.30971e-011	7.62953e-011	6.97661e-011	6.36591e-011	5.80339e-011	5.25459e-011	4.7658e-011	4.30896e-011	3.87494e-011	3.46299e-011	3.10281e-011	
CoarseR240	2.81138e-010	3.02774e-010	3.42382e-010	9.95448e-011	1.09349e-010	1.16907e-010	1.22579e-010	1.26767e-010	1.28961e-010	1.28998e-010	1.24801e-010	1.17551e-010	1.0918e-010	1.01343e-010	9.35734e-011	8.61939e-011	7.94661e-011	7.29131e-011	6.67952e-011	6.10698e-011	5.56227e-011	5.07175e-011	4.59904e-011	4.17531e-011	3.75895e-011	3.38636e-011	
CoarseR250	2.92933e-010	3.45825e-010	3.55691e-010	9.9883e-011	1.09968e-010	1.1758e-010	1.23526e-010	1.27875e-010	1.30376e-010	1.3066e-010	1.27296e-010	1.20233e-010	1.11901e-010	1.04127e-010	9.62378e-011	8.8929e-011	8.21861e-011	7.55941e-011	6.94856e-011	6.38017e-011	5.84156e-011	5.33933e-011	4.86591e-011	4.43726e-011	4.02713e-011	3.64961e-011	
MinCout:	-3.2299e-013	CoarseR:	120	CoarseC:	180

	CoarseC40	CoarseC41	CoarseC42	CoarseC43	CoarseC44	CoarseC45	CoarseC46	CoarseC47	CoarseC48	CoarseC49	CoarseC50	CoarseC51	CoarseC52	CoarseC53	CoarseC54	CoarseC55	CoarseC56	CoarseC57	CoarseC58	CoarseC59	CoarseC60	
CoarseR70	-1.89643e-011	-1.84304e-011	-1.77262e-011	-1.70327e-011	-1.66197e-011	-1.59692e-011	-1.54007e-011	-1.49745e-011	-1.45036e-011	-1.38355e-011	-1.30462e-011	-1.29569e-011	-1.16432e-011	-1.21937e-011	-1.10228e-011	-1.13698e-011	-1.0015e-011	-9.60899e-012	-9.24048e-012	-9.08471e-012	-8.57729e-012	
CoarseR71	-1.68394e-011	-1.61396e-011	-1.54607e-011	-1.47913e-011	-1.4171e-011	-1.36736e-011	-1.32327e-011	-1.26901e-011	-1.2136e-011	-1.15187e-011	-1.0816e-011	-1.04087e-011	-9.88336e-012	-9.45109e-012	-9.16299e-012	-8.38517e-012	-8.02028e-012	-7.42608e-012	-7.06332e-012	-6.91142e-012	-6.36094e-012	
CoarseR72	-1.42988e-011	-1.36874e-011	-1.31815e-011	-1.24747e-011	-1.19432e-011	-1.14105e-011	-1.09308e-011	-1.03862e-011	-9.75513e-012	-9.03384e-012	-8.4888e-012	-8.13012e-012	-7.41237e-012	-7.14935e-012	-6.59838e-012	-6.45591e-012	-5.46603e-012	-5.01975e-012	-4.66165e-012	-4.61961e-012	-4.10111e-012	
CoarseR73	-1.21222e-011	-1.162e-011	-1.0905e-011	-1.02028e-011	-9.7167e-012	-9.08158e-012	-8.65454e-012	-8.21634e-012	-7.63181e-012	-6.99769e-012	-6.36791e-012	-5.88792e-012	-5.35084e-012	-4.90358e-012	-4.5849e-012	-4.00283e-012	-3.4848e-012	-2.96172e-012	-2.5618e-012	-2.41786e-012	-1.87621e-012	
CoarseR74	-1.01029e-011	-9.30911e-012	-8.89591e-012	-8.34511e-012	-7.58643e-012	-7.06264e-012	-6.48709e-012	-6.0591e-012	-5.57986e-012	-4.91169e-012	-4.44997e-012	-3.77675e-012	-3.23301e-012	-3.0654e-012	-2.36566e-012	-2.18634e-012	-1.19392e-012	-7.55807e-013	-3.59544e-013	-6.8312e-014	2.27501e-013	
CoarseR75	-7.96444e-012	-7.53207e-012	-6.9736e-012	-6.21538e-012	-5.54795e-012	-5.14967e-012	-4.70992e-012	-4.11512e-012	-3.57599e-012	-2.76004e-012	-2.26449e-012	-2.00661e-012	-1.21917e-012	-7.59662e-013	-3.85823e-013	9.64315e-014	7.7908e-013	1.29366e-012	1.68624e-012	1.84062e-012	2.32882e-012	
CoarseR76	-5.96016e-012	-5.66015e-012	-5.23083e-012	-4.16073e-012	-3.89633e-012	-3.24338e-012	-2.76279e-012	-2.38082e-012	-1.6602e-012	-1.16456e-012	-4.89912e-013	-5.75047e-014	8.63654e-013	1.14859e-012	1.62453e-012	1.98751e-012	2.98827e-012	3.48099e-012	3.70035e-012	3.95602e-012	4.42545e-012	
CoarseR77	-4.30439e-012	-3.77535e-012	-3.4539e-012	-2.74861e-012	-2.06245e-012	-1.41728e-012	-9.21871e-013	-3.54603e-013	2.64635e-014	6.2676e-013	1.36061e-012	1.76249e-012	2.70563e-012	2.94256e-012	3.64846e-012	3.75562e-012	5.06532e-012	5.49243e-012	5.83285e-012	5.97787e-012	6.5043e-012	
CoarseR78	-2.71936e-012	-2.00269e-012	-1.64398e-012	-8.34585e-013	-4.95209e-013	2.54136e-013	7.52235e-013	1.20851e-012	1.66831e-012	2.74594e-012	3.33047e-012	3.82796e-012	4.47871e-012	4.99932e-012	5.30641e-012	6.2519e-012	6.71667e-012	7.47118e-012	7.91504e-012	7.99322e-012	8.47041e-012	
CoarseR79	-1.08601e-012	-3.09777e-013	4.50193e-014	8.11075e-013	1.31892e-012	1.95666e-012	2.40637e-012	2.98538e-012	3.67672e-012	4.53394e-012	5.01454e-012	5.6345e-012	6.42591e-012	7.00506e-012	7.30847e-012	8.3121e-012	8.40873e-012	9.43228e-012	9.74764e-012	9.97579e-012	1.04494e-011	
CoarseR80	6.24841e-013	1.29099e-012	1.85194e-012	2.57037e-012	3.20137e-012	3.77183e-012	4.21758e-012	4.63987e-012	5.41658e-012	5.77064e-012	7.59373e-012	6.99234e-012	8.99242e-012	7.86112e-012	1.00513e-011	8.38293e-012	1.10444e-011	1.13978e-011	1.16806e-011	1.18602e-011	1.23305e-011	
CoarseR81	2.49112e-012	3.17538e-012	3.79778e-012	4.40309e-012	4.96672e-012	5.46986e-012	6.12812e-012	6.46376e-012	7.50131e-012	8.12261e-012	9.07424e-012	9.39735e-012	1.04671e-011	1.04191e-011	1.17877e-011	1.09157e-011	1.28879e-011	1.33003e-011	1.35614e-011	1.37375e-011	1.42664e-011	
CoarseR82	4.27982e-012	5.09029e-012	5.58009e-012	6.30958e-012	6.80451e-012	7.34928e-012	7.85043e-012	8.35426e-012	8.97155e-012	1.03563e-011	1.08079e-011	1.14768e-011	1.20221e-011	1.2776e-011	1.2845e-011	1.42276e-011	1.47412e-011	1.51035e-011	1.54703e-011	1.56426e-011	1.60426e-011	
CoarseR83	6.25288e-012	6.88686e-012	7.50141e-012	8.16131e-012	8.76148e-012	9.25827e-012	9.82009e-012	1.01916e-011	1.08686e-011	1.24745e-011	1.18481e-011	1.42156e-011	1.2752e-011	1.53728e-011	1.33631e-011	1.61399e-011	1.66946e-011	1.7055e-011	1.73717e-011	1.75402e-011	1.80622e-011	
CoarseR84	7.9518e-012	8.75475e-012	9.30232e-012	9.95776e-012	1.05099e-011	1.11108e-011	1.15406e-011	1.20805e-011	1.33498e-011	1.38607e-011	1.47335e-011	1.55362e-011	1.57077e-011	1.67823e-011	1.64535e-011	1.78878e-011	1.84121e-011	1.87674e-011	1.91724e-011	1.9337e-011	1.98555e-011	
CoarseR85	9.70145e-012	1.0457e-011	1.11523e-011	1.18057e-011	1.22889e-011	1.28424e-011	1.33778e-011	1.37596e-011	1.43663e-011	1.6311e-011	1.59716e-011	1.74678e-011	1.70669e-011	1.89101e-011	1.69624e-011	1.97264e-011	2.01656e-011	2.05644e-011	2.09205e-011	2.10349e-011	2.155e-011	
CoarseR86	1.16359e-011	1.2256e-011	1.27526e-011	1.35093e-011	1.41637e-011	1.45402e-011	1.52454e-011	1.55595e-011	1.72782e-011	1.7341e-011	1.86801e-011	1.83045e-011	2.01088e-011	1.91764e-011	2.10237e-011	2.14309e-011	2.19753e-011	2.23861e-011	2.26912e-011	2.28494e-011	2.32984e-011	
CoarseR87	1.33133e-011	1.40861e-011	1.45763e-011	1.52871e-011	1.5828e-011	1.64185e-011	1.69023e-011	1.78804e-011	1.88292e-011	1.94265e-011	2.03325e-011	2.0505e-011	2.15665e-011	2.16679e-011	2.28205e-011	2.32047e-011	2.37009e-011	2.40457e-011	2.45032e-011	2.45466e-011	2.49922e-011	
CoarseR88	1.51563e-011	1.58345e-011	1.64558e-011	1.70527e-011	1.759e-011	1.8177e-011	1.89268e-011	1.91359e-011	2.12076e-011	2.06127e-011	2.2778e-011	2.11955e-011	2.39063e-011	2.17809e-011	2.45869e-011	2.49403e-011	2.54328e-011	2.58214e-011	2.60565e-011	2.63151e-011	2.67573e-011	
CoarseR89	1.68758e-011	1.75503e-011	1.80798e-011	1.88242e-011	1.94231e-011	1.98993e-011	2.11038e-011	2.13445e-011	2.26805e-011	2.29195e-011	2.40711e-011	2.3922e-011	2.54766e-011	2.45824e-011	2.61188e-011	2.66047e-011	2.71582e-011	2.75136e-011	2.77926e-011	2.79372e-011	2.84672e-011	
CoarseR90	1.86229e-011	1.93373e-011	1.97529e-011	2.05596e-011	2.10253e-011	2.16685e-011	2.26972e-011	2.314e-011	2.42844e-011	2.47717e-011	2.56993e-011	2.5577e-011	2.7111e-011	2.69208e-011	2.78575e-011	2.8139e-011	2.87316e-011	2.9158e-011	2.94504e-011	2.96393e-011	3.00731e-011	
MinCout:	2.64635e-014	CoarseR:	77	CoarseC:	48

	FineC0	FineC10	FineC20	FineC30	FineC40	FineC50	FineC60	FineC70	FineC80	FineC90	FineC100	FineC110	FineC120	FineC130	FineC140	FineC150	FineC160	FineC170	FineC180	FineC190	FineC200	FineC210	FineC220	FineC230	FineC240	FineC250	
FineR0	-6.54553e-011	-5.26207e-011	-4.55918e-011	-4.03335e-011	-3.69118e-011	-3.40009e-011	-3.18088e-011	-3.00428e-011	-2.87561e-011	-2.76424e-011	-2.63896e-011	-2.54703e-011	-2.49706e-011	-2.42602e-011	-2.38351e-011	-2.33474e-011	-2.28185e-011	-2.27382e-011	-2.2236e-011	-2.20341e-011	-2.18119e-011	-2.15347e-011	-2.11048e-011	-2.09911e-011	-2.09354e-011	-2.07714e-011	
FineR10	-5.2154e-011	-3.94908e-011	-3.27417e-011	-2.77295e-011	-2.41154e-011	-2.1306e-011	-1.90502e-011	-1.72374e-011	-1.5813e-011	-1.45592e-011	-1.35691e-011	-1.27127e-011	-1.23437e-011	-1.1719e-011	-1.08757e-011	-1.06423e-011	-1.00047e-011	-9.96796e-012	-9.76057e-012	-9.31658e-012	-9.08324e-012	-8.96488e-012	-8.63982e-012	-8.59599e-012	-8.54086e-012	-8.17992e-012	
FineR20	-4.75459e-011	-3.50186e-011	-2.80886e-011	-2.2854e-011	-1.93418e-011	-1.64006e-011	-1.42833e-011	-1.25629e-011	-1.08935e-011	-1.00005e-011	-8.78554e-012	-8.22827e-012	-7.54601e-012	-6.8611e-012	-6.41498e-012	-5.96733e-012	-5.52664e-012	-5.23797e-012	-4.84113e-012	-4.4785e-012	-4.39803e-012	-4.10797e-012	-3.828e-012	-3.88062e-012	-3.73329e-012	-3.65295e-012	
FineR30	-4.4944e-011	-3.25978e-011	-2.56317e-011	-2.06981e-011	-1.67915e-011	-1.40728e-011	-1.18996e-011	-1.02881e-011	-8.51826e-012	-7.67274e-012	-6.66978e-012	-5.69681e-012	-5.14319e-012	-4.41514e-012	-3.97038e-012	-3.56801e-012	-3.10088e-012	-2.98349e-012	-2.54174e-012	-2.26992e-012	-2.16147e-012	-1.91657e-012	-1.54553e-012	-1.49955e-012	-1.37993e-012	-1.20797e-012	
FineR40	-4.37168e-011	-3.12577e-011	-2.41089e-011	-1.9223e-011	-1.54312e-011	-1.26349e-011	-1.04027e-011	-8.56306e-012	-7.00648e-012	-6.09785e-012	-5.14149e-012	-4.48036e-012	-3.44833e-012	-3.13679e-012	-2.52883e-012	-2.06373e-012	-1.76827e-012	-1.48017e-012	-1.10145e-012	-7.21669e-013	-5.67549e-013	-3.85453e-013	-1.22554e-013	-1.32872e-014	2.04434e-013	2.96311e-013	
FineR50	-4.28493e-011	-3.0286e-011	-2.30495e-011	-1.81848e-011	-1.46265e-011	-1.17304e-011	-9.62501e-012	-7.79038e-012	-6.16928e-012	-5.07359e-012	-4.05433e-012	-3.29274e-012	-2.5892e-012	-2.07667e-012	-1.63254e-012	-1.10472e-012	-6.28718e-013	-3.95178e-013	-4.34948e-014	2.0998e-014	3.64417e-013	6.27099e-013	7.28621e-013	9.18639e-013	1.10151e-012	1.13064e-012	
FineR60	-4.21379e-011	-2.96422e-011	-2.24936e-011	-1.77208e-011	-1.39104e-011	-1.11226e-011	-8.78998e-012	-6.91526e-012	-5.31751e-012	-4.58176e-012	-3.47739e-012	-2.71643e-012	-1.93158e-012	-1.26829e-012	-8.31742e-013	-5.93421e-013	-4.60281e-014	2.86835e-013	5.48297e-013	7.83636e-013	1.04638e-012	1.38962e-012	1.46355e-012	1.52053e-012	1.69287e-012	1.89381e-012	
FineR70	-4.17308e-011	-2.90228e-011	-2.19925e-011	-1.70456e-011	-1.34133e-011	-1.05183e-011	-8.50338e-012	-6.631e-012	-5.09834e-012	-3.91851e-012	-2.81852e-012	-2.39262e-012	-1.7155e-012	-8.89091e-013	-2.12153e-013	4.46752e-014	3.94453e-013	6.54656e-013	9.16347e-013	1.37643e-012	1.34195e-012	1.74074e-012	1.85992e-012	2.06794e-012	2.26806e-012	2.36054e-012	
FineR80	-4.14339e-011	-2.87926e-011	-2.1868e-011	-1.67325e-011	-1.31271e-011	-1.01479e-011	-8.19992e-012	-6.41175e-012	-4.62831e-012	-3.59808e-012	-2.41255e-012	-1.84181e-012	-1.18392e-012	-3.95682e-013	-1.22509e-013	3.86166e-013	8.25478e-013	1.00523e-012	1.44646e-012	1.73541e-012	1.83654e-012	2.24317e-012	2.29935e-012	2.47232e-012	2.54646e-012	2.63898e-012	
FineR90	-4.11346e-011	-2.87182e-011	-2.15157e-011	-1.64939e-011	-1.28219e-011	-9.90767e-012	-7.81342e-012	-5.83646e-012	-4.51469e-012	-3.38123e-012	-2.40954e-012	-1.58209e-012	-8.7993e-013	-2.87217e-013	3.26681e-013	6.20022e-013	1.14876e-012	1.43654e-012	1.67997e-012	1.97816e-012	2.08763e-012	2.26964e-012	2.67611e-012	2.54428e-012	3.04222e-012	2.93532e-012	
FineR100	-4.10119e-011	-2.83524e-011	-2.12993e-011	-1.61384e-011	-1.2667e-011	-9.79605e-012	-7.63824e-012	-5.59928e-012	-4.21727e-012	-3.24907e-012	-2.06786e-012	-1.32234e-012	-7.77768e-013	-7.17342e-014	5.79174e-013	7.90844e-013	1.33761e-012	1.54411e-012	1.97646e-012	2.16636e-012	2.42934e-012	2.42234e-012	2.87411e-012	2.96677e-012	3.14955e-012	3.26586e-012	
FineR110	-4.07339e-011	-2.81721e-011	-2.11808e-011	-1.60641e-011	-1.2469e-011	-9.49614e-012	-7.29603e-012	-5.48922e-012	-4.08584e-012	-2.93059e-012	-1.87194e-012	-1.1947e-012	-4.55326e-013	1.43647e-013	8.13071e-013	1.04299e-012	1.52657e-012	1.65186e-012	2.12907e-012	2.39975e-012	2.53675e-012	2.78179e-012	2.85583e-012	3.20008e-012	3.44584e-012	3.4194e-012	
FineR120	-4.06785e-011	-2.80825e-011	-2.10803e-011	-1.59769e-011	-1.23161e-011	-9.59581e-012	-7.31272e-012	-5.35819e-012	-4.08289e-012	-2.80223e-012	-1.80719e-012	-1.14949e-012	-3.4699e-013	3.33262e-013	6.31706e-013	1.38437e-012	1.74194e-012	1.80428e-012	2.25468e-012	2.4266e-012	2.70751e-012	3.01553e-012	3.27814e-012	3.19939e-012	3.55363e-012	3.47475e-012	
FineR130	-4.04987e-011	-2.80079e-011	-2.10197e-011	-1.58653e-011	-1.22078e-011	-9.2539e-012	-7.05709e-012	-5.27056e-012	-3.91159e-012	-2.65006e-012	-1.65506e-012	-8.71532e-013	-3.02242e-013	4.41167e-013	7.57973e-013	1.24003e-012	1.72369e-012	1.88506e-012	2.29935e-012	2.63285e-012	2.89547e-012	2.95184e-012	3.25988e-012	3.43261e-012	3.5354e-012	3.74321e-012	
FineR140	-4.0451e-011	-2.77968e-011	-2.0819e-011	-1.58193e-011	-1.21996e-011	-9.31237e-012	-6.92536e-012	-5.39333e-012	-3.9721e-012	-2.5857e-012	-1.67365e-012	-7.88458e-013	-1.31451e-013	4.85644e-013	8.84336e-013	1.37393e-012	1.93064e-012	2.05578e-012	2.47005e-012	2.74054e-012	2.96774e-012	3.23095e-012	3.1961e-012	3.4323e-012	3.53448e-012	3.83366e-012	
FineR150	-4.02137e-011	-2.77844e-011	-2.09028e-011	-1.56213e-011	-1.2069e-011	-9.14018e-012	-6.94477e-012	-4.99172e-012	-3.65441e-012	-2.62398e-012	-1.60947e-012	-7.43651e-013	-1.75118e-013	5.49047e-013	1.07343e-012	1.45529e-012	1.92063e-012	2.14523e-012	2.37063e-012	2.83027e-012	2.96746e-012	3.18479e-012	3.39513e-012	3.63105e-012	3.67697e-012	3.89619e-012	
FineR160	-4.03256e-011	-2.7869e-011	-2.09304e-011	-1.55783e-011	-1.19836e-011	-9.01521e-012	-6.87819e-012	-5.11501e-012	-3.63e-012	-2.6224e-012	-1.41927e-012	-6.99378e-013	5.86275e-014	6.12287e-013	1.05497e-012	1.67062e-012	1.98363e-012	2.2443e-012	2.52324e-012	2.87479e-012	3.13803e-012	3.31039e-012	3.5378e-012	3.50413e-012	3.75036e-012	3.95827e-012	
FineR170	-4.03185e-011	-2.77584e-011	-2.07243e-011	-1.55495e-011	-1.1957e-011	-9.09408e-012	-6.83459e-012	-5.0082e-012	-3.58608e-012	-2.40919e-012	-1.45742e-012	-6.98607e-013	2.101e-014	6.3797e-013	1.0995e-012	1.5445e-012	1.98318e-012	2.28907e-012	2.47791e-012	2.82093e-012	3.09241e-012	3.37257e-012	3.5374e-012	3.73824e-012	3.8933e-012	3.92315e-012	
FineR180	-4.01808e-011	-2.76878e-011	-2.06556e-011	-1.56832e-011	-1.19371e-011	-9.19733e-012	-6.76946e-012	-4.96335e-012	-3.69051e-012	-2.38829e-012	-1.43741e-012	-7.17419e-013	1.2833e-013	7.38686e-013	1.14395e-012	1.68875e-012	1.96482e-012	2.18932e-012	2.60371e-012	2.9015e-012	3.23563e-012	3.31935e-012	3.59999e-012	3.59429e-012	3.79448e-012	3.92207e-012	
FineR190	-4.03665e-011	-2.76477e-011	-2.06255e-011	-1.56053e-011	-1.19512e-011	-9.05088e-012	-6.78891e-012	-5.0476e-012	-3.66926e-012	-2.34425e-012	-1.45633e-012	-5.08529e-013	8.46375e-014	7.82954e-013	1.29586e-012	1.73323e-012	2.00948e-012	2.25209e-012	2.81032e-012	2.95461e-012	3.13694e-012	3.39954e-012	3.62694e-012	3.61131e-012	3.92e-012	4.11047e-012	
FineR200	-4.0263e-011	-2.75508e-011	-2.08004e-011	-1.55649e-011	-1.18062e-011	-9.00441e-012	-6.82965e-012	-4.96118e-012	-3.6036e-012	-2.44976e-012	-1.34943e-012	-5.2754e-013	2.57159e-015	8.274e-013	1.14393e-012	1.67034e-012	2.10873e-012	2.50389e-012	2.77385e-012	2.7746e-012	3.13653e-012	3.44445e-012	3.50043e-012	3.75429e-012	3.79342e-012	4.04705e-012	
FineR210	-4.02559e-011	-2.77992e-011	-2.05049e-011	-1.55606e-011	-1.20329e-011	-8.85802e-012	-6.80764e-012	-5.06633e-012	-3.66585e-012	-2.32312e-012	-1.45551e-012	-5.661e-013	1.47903e-013	7.89878e-013	1.25133e-012	1.90364e-012	1.98249e-012	2.37765e-012	2.7288e-012	3.04417e-012	3.05534e-012	3.39865e-012	3.60841e-012	3.79929e-012	3.87335e-012	3.90313e-012	
FineR220	-4.03162e-011	-2.75624e-011	-2.06922e-011	-1.54559e-011	-1.18413e-011	-9.08614e-012	-6.70008e-012	-5.06524e-012	-3.64459e-012	-2.3229e-012	-1.26604e-012	-5.65859e-013	2.54902e-013	8.7166e-013	1.31427e-012	1.66989e-012	2.11661e-012	2.35927e-012	2.69256e-012	2.99029e-012	3.18096e-012	3.6149e-012	3.56297e-012	3.84437e-012	3.80983e-012	4.15456e-012	
FineR230	-4.03137e-011	-2.76258e-011	-2.07925e-011	-1.55019e-011	-1.19277e-011	-8.89696e-012	-6.86853e-012	-4.87512e-012	-3.41291e-012	-2.42526e-012	-1.26136e-012	-7.35725e-013	2.95836e-015	7.26676e-013	1.1695e-012	1.65133e-012	2.05332e-012	2.44882e-012	2.80028e-012	2.96295e-012	3.24352e-012	3.29944e-012	3.62548e-012	3.82632e-012	3.95321e-012	4.02861e-012	
FineR240	-4.01139e-011	-2.75704e-011	-2.06883e-011	-1.55172e-011	-1.1972e-011	-9.10668e-012	-6.72086e-012	-4.97886e-012	-3.51773e-012	-2.44831e-012	-1.34853e-012	-5.27037e-013	6.59993e-014	6.82431e-013	1.188e-012	1.71418e-012	2.07148e-012	2.42199e-012	2.62879e-012	2.88165e-012	3.09976e-012	3.31712e-012	3.57224e-012	3.78081e-012	3.98084e-012	4.02806e-012	
FineR250	-4.03723e-011	-2.79463e-011	-2.06098e-011	-1.56019e-011	-1.18224e-011	-9.12502e-012	-6.71945e-012	-5.14759e-012	-3.62079e-012	-2.44468e-012	-1.53728e-012	-6.09104e-013	1.92148e-013	7.45466e-013	1.25093e-012	1.75863e-012	2.07157e-012	2.23257e-012	2.70985e-012	3.08815e-012	3.03629e-012	3.362e-012	3.60742e-012	3.71732e-012	3.81938e-012	4.154e-012	
MinCout:	2.57159e-015	FineR:	200	FineC:	120

	FineC140	FineC141	FineC142	FineC143	FineC144	FineC145	FineC146	FineC147	FineC148	FineC149	FineC150	FineC151	FineC152	FineC153	FineC154	FineC155	FineC156	FineC157	FineC158	FineC159	FineC160	
FineR60	-9.05719e-013	-6.61446e-013	-8.05848e-013	-7.16779e-013	-6.01311e-013	-6.7218e-013	-5.82993e-013	-3.93984e-013	-4.93705e-013	-4.49047e-013	-3.677e-013	-3.59614e-013	-2.70141e-013	-3.77857e-013	-1.62331e-013	-3.63543e-014	-9.93016e-014	-1.35728e-013	-5.44788e-014	1.16228e-013	-9.07712e-014	
FineR61	-5.90617e-013	-8.87284e-013	-6.53696e-013	-6.53696e-013	-6.9051e-013	-5.64554e-013	-5.64614e-013	-5.56754e-013	-4.93736e-013	-3.86024e-013	-3.14997e-013	-3.59631e-013	-2.07161e-013	-2.78336e-013	-2.70147e-013	-9.93663e-014	-2.88378e-013	-7.27802e-014	-1.98781e-013	1.68997e-014	-1.53866e-013	
FineR62	-7.53627e-013	-8.05767e-013	-8.24271e-013	-7.16717e-013	-4.30672e-013	-5.83001e-013	-6.19856e-013	-5.19961e-013	-4.12335e-013	-4.49075e-013	-3.8605e-013	-1.88937e-013	-2.88552e-013	-1.25929e-013	-2.5194e-013	-3.64366e-014	-1.9891e-013	5.31853e-014	-9.81233e-015	1.69462e-013	7.99084e-014	
FineR63	-7.42541e-013	-7.79701e-013	-6.79755e-013	-6.27575e-013	-3.93863e-013	-4.38576e-013	-3.93981e-013	-4.49137e-013	-5.1216e-013	-2.78383e-013	-1.70677e-013	-1.25969e-013	-1.25952e-013	-4.4729e-014	-1.62501e-013	-5.47258e-014	-8.11915e-014	-3.64366e-014	7.13452e-014	1.24563e-013	7.98203e-014	
FineR64	-5.45917e-013	-5.72127e-013	-5.72141e-013	-5.45994e-013	-4.7526e-013	-4.56932e-013	-4.38509e-013	-3.93921e-013	-3.04688e-013	-1.70706e-013	3.65173e-014	-1.44305e-013	2.64608e-014	-2.07275e-013	-8.12353e-014	-8.12353e-014	-1.17744e-013	1.1607e-013	1.16091e-013	3.31624e-013	2.05795e-013	
FineR65	-5.64427e-013	-5.90524e-013	-5.27517e-013	-5.82992e-013	-3.49221e-013	-4.38501e-013	-4.56932e-013	-2.60029e-013	-4.49171e-013	-1.26022e-013	-6.30021e-014	0	8.16849e-015	-9.95775e-014	-3.65189e-014	2.64897e-014	-1.80861e-013	9.783e-014	1.60848e-013	1.60831e-013	2.05719e-013	
FineR66	-5.45921e-013	-4.64488e-013	-4.19969e-013	-3.56981e-013	-4.75243e-013	-3.75427e-013	-2.2326e-013	-1.97019e-013	-1.97019e-013	-1.34027e-013	-8.93688e-014	-1.44363e-013	-5.49019e-014	-1.89042e-013	-1.17891e-013	7.12091e-014	2.60198e-013	3.47526e-014	2.05588e-013	1.87413e-013	2.68671e-013	
FineR67	-5.01327e-013	-4.4599e-013	-6.35026e-013	-2.86197e-013	-3.49175e-013	-3.1242e-013	-4.30763e-013	-1.96989e-013	-2.41647e-013	8.1287e-014	-1.07686e-013	0	5.28314e-014	-1.82945e-014	-8.12997e-014	7.11912e-014	1.78984e-013	9.77266e-014	1.60759e-013	1.87318e-013	1.4264e-013	
FineR68	-3.56743e-013	-4.82877e-013	-4.38346e-013	-2.49325e-013	-1.96929e-013	-3.12337e-013	-2.23201e-013	-1.52355e-013	-1.96989e-013	9.95951e-014	-8.93451e-014	1.52406e-013	2.33621e-013	2.64157e-014	7.11732e-014	1.15901e-013	3.46347e-014	1.24172e-013	2.23759e-013	3.58179e-013	3.94573e-013	
FineR69	-4.82717e-013	-4.64349e-013	-3.56813e-013	-2.67733e-013	-2.23067e-013	-3.04642e-013	-2.41602e-013	1.03921e-014	3.66582e-014	1.26009e-013	0	1.70691e-013	8.93976e-014	1.34149e-013	1.1588e-013	1.34158e-013	1.15912e-013	2.68493e-013	4.30844e-013	5.65208e-013	3.76404e-013	
FineR70	-3.1962e-013	-3.75221e-013	-3.56718e-013	-2.67662e-013	-2.15357e-013	-1.86257e-013	-7.87693e-014	-2.78464e-013	-5.25696e-014	1.83528e-014	6.30222e-014	1.88979e-013	1.97107e-013	1.70706e-013	1.52426e-013	2.41886e-013	3.0493e-013	2.86706e-013	4.30867e-013	4.84091e-013	4.12684e-013	
FineR71	-3.12024e-013	-4.01201e-013	-3.38191e-013	-1.41585e-013	-1.33857e-013	-3.67688e-013	-1.3391e-013	-1.15509e-013	9.9733e-014	-4.46572e-014	6.3031e-014	6.30192e-014	2.60127e-013	1.78841e-013	8.01469e-015	2.86646e-013	9.75245e-014	4.12664e-013	3.49661e-013	4.65811e-013	4.21145e-013	
FineR72	-2.93476e-013	-4.27124e-013	-2.67606e-013	-2.49087e-013	-2.41473e-013	-9.70071e-014	-1.3391e-013	-2.62401e-014	1.44391e-013	8.13951e-014	1.70734e-013	2.78397e-013	3.23094e-013	2.33713e-013	2.60151e-013	4.12622e-013	3.2313e-013	3.13177e-013	4.57457e-013	5.28841e-013	4.21072e-013	
FineR73	-1.85897e-013	-2.75035e-013	-1.41466e-013	-1.86046e-013	-7.07742e-014	5.52158e-014	5.51803e-014	-7.82038e-015	-4.46453e-014	1.07714e-013	8.93494e-014	3.86127e-013	1.34033e-013	2.60127e-013	3.31407e-013	4.57411e-013	3.49666e-013	3.31361e-013	3.76212e-013	4.84001e-013	5.02262e-013	
FineR74	-3.11919e-013	-2.30487e-013	-3.12063e-013	-3.38937e-014	-7.72673e-015	-5.23628e-014	1.06106e-014	1.44478e-013	3.67992e-014	2.70416e-013	2.52064e-013	4.49102e-013	4.04353e-013	2.78424e-013	3.23146e-013	3.94389e-013	5.834e-013	4.7563e-013	4.65773e-013	7.17766e-013	6.10097e-013	
FineR75	-1.52395e-014	-7.8325e-014	3.05879e-015	-1.7838e-013	3.69042e-014	5.52683e-014	8.148e-014	2.25869e-013	3.33429e-013	1.8114e-013	2.3377e-013	4.3086e-013	2.4175e-013	1.97106e-013	3.86166e-013	6.01584e-013	3.4962e-013	5.20431e-013	5.20431e-013	6.54781e-013	5.73667e-013	
FineR76	-1.5186e-014	-1.22857e-013	-1.59851e-013	-7.64643e-015	1.84701e-014	1.07135e-014	2.25919e-013	1.2612e-013	2.52169e-013	2.33793e-013	3.59803e-013	3.6784e-013	3.6784e-013	2.60119e-013	4.30932e-013	4.9385e-013	3.679e-013	6.28176e-013	6.09964e-013	6.99527e-013	6.10035e-013	
FineR77	2.93992e-014	-1.6732e-013	-5.98009e-014	7.3831e-014	2.07625e-013	1.55138e-013	1.62965e-013	4.41214e-013	6.30686e-014	3.41525e-013	3.41496e-013	4.22754e-013	3.67795e-013	4.49178e-013	2.86519e-013	5.38636e-013	3.94329e-013	7.54136e-013	5.10456e-013	8.88548e-013	6.10046e-013	
FineR78	-8.55707e-014	-1.51726e-014	-1.59786e-013	2.93174e-014	-7.62637e-015	1.55231e-013	1.26149e-013	2.0759e-013	2.7055e-013	3.15196e-013	3.41496e-013	3.49481e-013	4.12528e-013	5.56941e-013	4.30907e-013	7.09343e-013	5.0215e-013	5.83408e-013	6.464e-013	7.17721e-013	6.73072e-013	
FineR79	2.1941e-014	-1.5119e-014	-1.51726e-014	9.24045e-014	1.18485e-013	1.99873e-013	1.63012e-013	3.33642e-013	3.1524e-013	2.41733e-013	4.22853e-013	4.49199e-013	4.7558e-013	5.12159e-013	4.3093e-013	5.65137e-013	6.46434e-013	5.65123e-013	7.35949e-013	8.0731e-013	6.54796e-013	
FineR80	-1.49854e-014	4.79289e-014	7.39957e-014	2.00019e-013	1.18529e-013	1.00025e-013	1.63053e-013	3.78322e-013	4.22952e-013	2.33827e-013	4.85856e-013	5.7519e-013	5.65016e-013	4.93925e-013	5.38662e-013	6.01671e-013	7.72357e-013	7.54173e-013	7.80769e-013	7.44278e-013	6.73006e-013	
MinCout:	0	FineR:	65	FineC:	151

