	CoarseC0	CoarseC10	CoarseC20	CoarseC30	CoarseC40	CoarseC50	CoarseC60	CoarseC70	CoarseC80	CoarseC90	CoarseC100	CoarseC110	CoarseC120	CoarseC130	CoarseC140	CoarseC150	CoarseC160	CoarseC170	CoarseC180	CoarseC190	CoarseC200	CoarseC210	CoarseC220	CoarseC230	CoarseC240	CoarseC250	
CoarseR0	-6.26986e-010	-6.27067e-010	-6.27063e-010	-6.27045e-010	-6.26941e-010	-6.27e-010	-6.26991e-010	-6.27008e-010	-6.26999e-010	-6.26958e-010	-6.26981e-010	-6.26975e-010	-6.26998e-010	-6.27025e-010	-6.26957e-010	-6.27132e-010	-6.27096e-010	-6.27096e-010	-6.27159e-010	-6.27118e-010	-6.27154e-010	-6.27217e-010	-6.27275e-010	-6.27181e-010	-6.27243e-010	-6.27311e-010	
CoarseR10	-5.52368e-010	-5.52371e-010	-5.52295e-010	-5.52315e-010	-5.52279e-010	-5.52221e-010	-5.52135e-010	-5.52185e-010	-5.52167e-010	-5.52139e-010	-5.52033e-010	-5.52053e-010	-5.52015e-010	-5.52044e-010	-5.52101e-010	-5.5213e-010	-5.52072e-010	-5.52062e-010	-5.52121e-010	-5.52112e-010	-5.52081e-010	-5.52141e-010	-5.52169e-010	-5.52169e-010	-5.52236e-010	-5.52177e-010	
CoarseR20	-4.91489e-010	-4.91382e-010	-4.91342e-010	-4.91339e-010	-4.91221e-010	-4.91143e-010	-4.91134e-010	-4.9107e-010	-4.91022e-010	-4.91038e-010	-4.91044e-010	-4.90996e-010	-4.90987e-010	-4.91009e-010	-4.91009e-010	-4.91e-010	-4.90991e-010	-4.90991e-010	-4.91022e-010	-4.91053e-010	-4.91024e-010	-4.91024e-010	-4.91114e-010	-4.91099e-010	-4.91124e-010	-4.91155e-010	
CoarseR30	-4.40886e-010	-4.4075e-010	-4.40701e-010	-4.4062e-010	-4.40571e-010	-4.40475e-010	-4.40426e-010	-4.40418e-010	-4.40277e-010	-4.40288e-010	-4.40187e-010	-4.40212e-010	-4.40171e-010	-4.40195e-010	-4.40195e-010	-4.40155e-010	-4.40164e-010	-4.40156e-010	-4.40189e-010	-4.40221e-010	-4.40254e-010	-4.40286e-010	-4.40286e-010	-4.40319e-010	-4.40332e-010	-4.40373e-010	
CoarseR40	-3.99061e-010	-3.98997e-010	-3.9888e-010	-3.98796e-010	-3.98767e-010	-3.98684e-010	-3.98601e-010	-3.98551e-010	-3.9851e-010	-3.98502e-010	-3.98419e-010	-3.98377e-010	-3.98404e-010	-3.98397e-010	-3.98451e-010	-3.98389e-010	-3.98382e-010	-3.9834e-010	-3.98395e-010	-3.98369e-010	-3.98463e-010	-3.98438e-010	-3.98554e-010	-3.98582e-010	-3.98624e-010	-3.98658e-010	
CoarseR50	-3.64095e-010	-3.63931e-010	-3.63904e-010	-3.63783e-010	-3.63698e-010	-3.63635e-010	-3.63492e-010	-3.63544e-010	-3.63459e-010	-3.63416e-010	-3.63409e-010	-3.63324e-010	-3.6328e-010	-3.63311e-010	-3.63267e-010	-3.63327e-010	-3.63321e-010	-3.63297e-010	-3.63326e-010	-3.63405e-010	-3.63405e-010	-3.63537e-010	-3.6352e-010	-3.63652e-010	-3.6367e-010	-3.6367e-010	
CoarseR60	-3.34426e-010	-3.34325e-010	-3.34201e-010	-3.34115e-010	-3.33985e-010	-3.33885e-010	-3.33798e-010	-3.33755e-010	-3.33707e-010	-3.33664e-010	-3.33639e-010	-3.33572e-010	-3.33529e-010	-3.33585e-010	-3.33518e-010	-3.33536e-010	-3.33574e-010	-3.33569e-010	-3.33584e-010	-3.33725e-010	-3.33703e-010	-3.33763e-010	-3.33801e-010	-3.33839e-010	-3.33882e-010	-3.3392e-010	
CoarseR70	-3.08967e-010	-3.08866e-010	-3.08739e-010	-3.08712e-010	-3.08546e-010	-3.08463e-010	-3.08415e-010	-3.08288e-010	-3.08201e-010	-3.08157e-010	-3.0811e-010	-3.08131e-010	-3.08062e-010	-3.08083e-010	-3.08079e-010	-3.08035e-010	-3.08074e-010	-3.0811e-010	-3.08149e-010	-3.08188e-010	-3.08188e-010	-3.08271e-010	-3.08267e-010	-3.0835e-010	-3.0835e-010	-3.0839e-010	
CoarseR80	-2.87123e-010	-2.86977e-010	-2.86848e-010	-2.8678e-010	-2.86692e-010	-2.86631e-010	-2.86546e-010	-2.86397e-010	-2.86455e-010	-2.86306e-010	-2.86324e-010	-2.86277e-010	-2.86233e-010	-2.86195e-010	-2.86195e-010	-2.86233e-010	-2.86274e-010	-2.86376e-010	-2.86353e-010	-2.86499e-010	-2.86394e-010	-2.86435e-010	-2.86476e-010	-2.8652e-010	-2.86561e-010	-2.86602e-010	
CoarseR90	-2.67965e-010	-2.67819e-010	-2.67731e-010	-2.67601e-010	-2.67471e-010	-2.67383e-010	-2.67322e-010	-2.67235e-010	-2.6719e-010	-2.67146e-010	-2.67102e-010	-2.67014e-010	-2.6697e-010	-2.66968e-010	-2.6701e-010	-2.66966e-010	-2.67009e-010	-2.67051e-010	-2.6705e-010	-2.67134e-010	-2.67177e-010	-2.67219e-010	-2.67219e-010	-2.67262e-010	-2.67262e-010	-2.67304e-010	
CoarseR100	-2.51133e-010	-2.51002e-010	-2.50898e-010	-2.50766e-010	-2.50634e-010	-2.50547e-010	-2.50459e-010	-2.50371e-010	-2.50327e-010	-2.50267e-010	-2.50257e-010	-2.50223e-010	-2.50222e-010	-2.50178e-010	-2.50178e-010	-2.50178e-010	-2.50265e-010	-2.50222e-010	-2.50265e-010	-2.50309e-010	-2.50309e-010	-2.50353e-010	-2.50397e-010	-2.50396e-010	-2.5044e-010	-2.5044e-010	
CoarseR110	-2.36156e-010	-2.3604e-010	-2.35891e-010	-2.35759e-010	-2.35626e-010	-2.35582e-010	-2.3545e-010	-2.35406e-010	-2.35318e-010	-2.35275e-010	-2.35216e-010	-2.35172e-010	-2.35173e-010	-2.35219e-010	-2.3522e-010	-2.35265e-010	-2.35267e-010	-2.35267e-010	-2.35312e-010	-2.35313e-010	-2.35313e-010	-2.35358e-010	-2.35358e-010	-2.35403e-010	-2.35448e-010	-2.35448e-010	
CoarseR120	-2.22837e-010	-2.22704e-010	-2.22553e-010	-2.22391e-010	-2.22287e-010	-2.22198e-010	-2.22111e-010	-2.22067e-010	-2.21934e-010	-2.21919e-010	-2.21847e-010	-2.21822e-010	-2.21745e-010	-2.21857e-010	-2.21794e-010	-2.21843e-010	-2.21799e-010	-2.21845e-010	-2.21891e-010	-2.21894e-010	-2.2194e-010	-2.22003e-010	-2.21986e-010	-2.22032e-010	-2.22035e-010	-2.22081e-010	
CoarseR130	-2.11119e-010	-2.10968e-010	-2.10772e-010	-2.10745e-010	-2.10564e-010	-2.10521e-010	-2.10388e-010	-2.10302e-010	-2.10211e-010	-2.10168e-010	-2.10158e-010	-2.10158e-010	-2.10106e-010	-2.10072e-010	-2.10123e-010	-2.10143e-010	-2.10055e-010	-2.10131e-010	-2.10131e-010	-2.10135e-010	-2.10182e-010	-2.10245e-010	-2.10186e-010	-2.10186e-010	-2.10233e-010	-2.10233e-010	
CoarseR140	-2.00685e-010	-2.00639e-010	-2.00443e-010	-2.00367e-010	-2.00234e-010	-2.00101e-010	-2.00058e-010	-1.99954e-010	-1.99911e-010	-1.99826e-010	-1.99735e-010	-1.99741e-010	-1.99746e-010	-1.99751e-010	-1.99708e-010	-1.99714e-010	-1.99791e-010	-1.99767e-010	-1.99767e-010	-1.99801e-010	-1.99849e-010	-1.99849e-010	-1.99849e-010	-1.99855e-010	-1.99897e-010	-1.99825e-010	
CoarseR150	-1.91396e-010	-1.91256e-010	-1.91187e-010	-1.91047e-010	-1.90914e-010	-1.90902e-010	-1.90769e-010	-1.90726e-010	-1.90593e-010	-1.90551e-010	-1.90509e-010	-1.90425e-010	-1.90431e-010	-1.90437e-010	-1.90437e-010	-1.90444e-010	-1.9048e-010	-1.90499e-010	-1.90457e-010	-1.90505e-010	-1.90463e-010	-1.90541e-010	-1.9059e-010	-1.9059e-010	-1.9056e-010	-1.9059e-010	
CoarseR160	-1.83245e-010	-1.83063e-010	-1.83036e-010	-1.82854e-010	-1.82842e-010	-1.82709e-010	-1.82562e-010	-1.82535e-010	-1.8243e-010	-1.8241e-010	-1.82335e-010	-1.82327e-010	-1.82285e-010	-1.82243e-010	-1.8233e-010	-1.82258e-010	-1.82296e-010	-1.82296e-010	-1.82303e-010	-1.82352e-010	-1.8236e-010	-1.82352e-010	-1.8236e-010	-1.82409e-010	-1.82409e-010	-1.82409e-010	
CoarseR170	-1.76232e-010	-1.76114e-010	-1.75939e-010	-1.75863e-010	-1.75731e-010	-1.7564e-010	-1.75557e-010	-1.75516e-010	-1.75384e-010	-1.75343e-010	-1.75302e-010	-1.75249e-010	-1.75228e-010	-1.75267e-010	-1.75225e-010	-1.75225e-010	-1.75234e-010	-1.75193e-010	-1.75242e-010	-1.75251e-010	-1.75301e-010	-1.7526e-010	-1.75301e-010	-1.75309e-010	-1.75309e-010	-1.75359e-010	
CoarseR180	-1.69883e-010	-1.69742e-010	-1.69611e-010	-1.6947e-010	-1.69403e-010	-1.69353e-010	-1.69221e-010	-1.69161e-010	-1.69079e-010	-1.68989e-010	-1.68948e-010	-1.68917e-010	-1.68876e-010	-1.68886e-010	-1.68895e-010	-1.68854e-010	-1.68864e-010	-1.68914e-010	-1.68914e-010	-1.68873e-010	-1.68883e-010	-1.68923e-010	-1.68883e-010	-1.68933e-010	-1.68972e-010	-1.68942e-010	
CoarseR190	-1.644e-010	-1.64259e-010	-1.64118e-010	-1.64027e-010	-1.63887e-010	-1.6382e-010	-1.63716e-010	-1.63615e-010	-1.63525e-010	-1.63444e-010	-1.63404e-010	-1.63428e-010	-1.63439e-010	-1.63358e-010	-1.63409e-010	-1.63369e-010	-1.63379e-010	-1.63274e-010	-1.63399e-010	-1.63335e-010	-1.63399e-010	-1.63345e-010	-1.63409e-010	-1.63396e-010	-1.63396e-010	-1.63426e-010	
CoarseR200	-1.59836e-010	-1.59644e-010	-1.59579e-010	-1.59488e-010	-1.59348e-010	-1.59257e-010	-1.59158e-010	-1.59067e-010	-1.59028e-010	-1.58948e-010	-1.58858e-010	-1.58869e-010	-1.5883e-010	-1.58801e-010	-1.58831e-010	-1.58761e-010	-1.58772e-010	-1.58772e-010	-1.58783e-010	-1.58794e-010	-1.58794e-010	-1.58794e-010	-1.58835e-010	-1.58805e-010	-1.58855e-010	-1.58846e-010	
CoarseR210	-1.56019e-010	-1.55878e-010	-1.55728e-010	-1.55602e-010	-1.55512e-010	-1.55383e-010	-1.55293e-010	-1.55284e-010	-1.55194e-010	-1.55115e-010	-1.55026e-010	-1.55037e-010	-1.54947e-010	-1.54919e-010	-1.5497e-010	-1.54931e-010	-1.54892e-010	-1.54903e-010	-1.54954e-010	-1.54915e-010	-1.54915e-010	-1.54926e-010	-1.54977e-010	-1.54926e-010	-1.54977e-010	-1.54938e-010	
CoarseR220	-1.52893e-010	-1.52663e-010	-1.52561e-010	-1.52433e-010	-1.52343e-010	-1.52318e-010	-1.52144e-010	-1.52119e-010	-1.52029e-010	-1.51952e-010	-1.51848e-010	-1.51835e-010	-1.51847e-010	-1.51808e-010	-1.5177e-010	-1.51782e-010	-1.51782e-010	-1.51794e-010	-1.51755e-010	-1.51806e-010	-1.51767e-010	-1.51848e-010	-1.51809e-010	-1.51779e-010	-1.5183e-010	-1.51821e-010	
CoarseR230	-1.50318e-010	-1.50178e-010	-1.50038e-010	-1.49898e-010	-1.49839e-010	-1.49699e-010	-1.49661e-010	-1.49521e-010	-1.49444e-010	-1.49368e-010	-1.49317e-010	-1.4924e-010	-1.49317e-010	-1.49279e-010	-1.4924e-010	-1.49253e-010	-1.49099e-010	-1.49192e-010	-1.49227e-010	-1.49205e-010	-1.49205e-010	-1.49217e-010	-1.49217e-010	-1.49217e-010	-1.4923e-010	-1.4923e-010	
CoarseR240	-1.48419e-010	-1.48245e-010	-1.48055e-010	-1.48031e-010	-1.47891e-010	-1.47802e-010	-1.47744e-010	-1.47587e-010	-1.47528e-010	-1.4749e-010	-1.47401e-010	-1.47363e-010	-1.47338e-010	-1.47365e-010	-1.47313e-010	-1.47275e-010	-1.47237e-010	-1.47249e-010	-1.47249e-010	-1.47211e-010	-1.47262e-010	-1.47275e-010	-1.47275e-010	-1.47275e-010	-1.47326e-010	-1.47288e-010	
CoarseR250	-1.47054e-010	-1.46945e-010	-1.46806e-010	-1.46667e-010	-1.46578e-010	-1.4652e-010	-1.46432e-010	-1.46292e-010	-1.46217e-010	-1.46129e-010	-1.46091e-010	-1.46053e-010	-1.45978e-010	-1.46056e-010	-1.45953e-010	-1.45966e-010	-1.45959e-010	-1.45972e-010	-1.45985e-010	-1.45985e-010	-1.45998e-010	-1.45998e-010	-1.45998e-010	-1.4596e-010	-1.46011e-010	-1.46024e-010	
MinCout:	-1.45953e-010	CoarseR:	250	CoarseC:	140

	CoarseC100	CoarseC101	CoarseC102	CoarseC103	CoarseC104	CoarseC105	CoarseC106	CoarseC107	CoarseC108	CoarseC109	CoarseC110	CoarseC111	CoarseC112	CoarseC113	CoarseC114	CoarseC115	CoarseC116	CoarseC117	CoarseC118	CoarseC119	CoarseC120	
CoarseR230	-1.49309e-010	-1.49347e-010	-1.4936e-010	-1.49347e-010	-1.49347e-010	-1.49347e-010	-1.49309e-010	-1.49309e-010	-1.49309e-010	-1.49309e-010	-1.4927e-010	-1.4927e-010	-1.4922e-010	-1.4922e-010	-1.4922e-010	-1.4922e-010	-1.4922e-010	-1.4922e-010	-1.4922e-010	-1.49181e-010	-1.49181e-010	
CoarseR231	-1.49146e-010	-1.49146e-010	-1.49146e-010	-1.49108e-010	-1.49065e-010	-1.49108e-010	-1.49027e-010	-1.49108e-010	-1.49108e-010	-1.49069e-010	-1.49069e-010	-1.49019e-010	-1.49019e-010	-1.49019e-010	-1.49069e-010	-1.49019e-010	-1.4898e-010	-1.4898e-010	-1.4898e-010	-1.4898e-010	-1.4898e-010	
CoarseR232	-1.48915e-010	-1.4898e-010	-1.48915e-010	-1.48877e-010	-1.4898e-010	-1.48907e-010	-1.48877e-010	-1.48877e-010	-1.48877e-010	-1.48942e-010	-1.48903e-010	-1.48788e-010	-1.48788e-010	-1.488e-010	-1.48853e-010	-1.48831e-010	-1.48865e-010	-1.48865e-010	-1.48814e-010	-1.48865e-010	-1.48814e-010	
CoarseR233	-1.4875e-010	-1.48831e-010	-1.48742e-010	-1.48792e-010	-1.48677e-010	-1.48742e-010	-1.48742e-010	-1.48742e-010	-1.48742e-010	-1.48703e-010	-1.48703e-010	-1.48653e-010	-1.48653e-010	-1.48622e-010	-1.48602e-010	-1.48602e-010	-1.48572e-010	-1.48614e-010	-1.48572e-010	-1.48602e-010	-1.48602e-010	
CoarseR234	-1.48537e-010	-1.48537e-010	-1.48537e-010	-1.48499e-010	-1.48499e-010	-1.48499e-010	-1.48499e-010	-1.48461e-010	-1.48448e-010	-1.48461e-010	-1.4841e-010	-1.48461e-010	-1.4841e-010	-1.4841e-010	-1.4841e-010	-1.48372e-010	-1.48372e-010	-1.48372e-010	-1.48372e-010	-1.48334e-010	-1.48334e-010	
CoarseR235	-1.48321e-010	-1.48321e-010	-1.4827e-010	-1.4827e-010	-1.48321e-010	-1.48232e-010	-1.48262e-010	-1.4827e-010	-1.48232e-010	-1.48232e-010	-1.48262e-010	-1.48232e-010	-1.48224e-010	-1.48173e-010	-1.48224e-010	-1.48224e-010	-1.48238e-010	-1.48186e-010	-1.48186e-010	-1.48186e-010	-1.48147e-010	
CoarseR236	-1.4816e-010	-1.4816e-010	-1.4816e-010	-1.4816e-010	-1.48122e-010	-1.48109e-010	-1.48122e-010	-1.48122e-010	-1.48071e-010	-1.48071e-010	-1.48071e-010	-1.48033e-010	-1.48033e-010	-1.48033e-010	-1.48033e-010	-1.48047e-010	-1.48033e-010	-1.48033e-010	-1.48047e-010	-1.48009e-010	-1.47944e-010	
CoarseR237	-1.4797e-010	-1.47919e-010	-1.47919e-010	-1.47919e-010	-1.47919e-010	-1.47881e-010	-1.47946e-010	-1.47911e-010	-1.47843e-010	-1.47843e-010	-1.47843e-010	-1.47873e-010	-1.47869e-010	-1.47886e-010	-1.47869e-010	-1.47805e-010	-1.47857e-010	-1.47835e-010	-1.47869e-010	-1.47869e-010	-1.47797e-010	
CoarseR238	-1.47792e-010	-1.47772e-010	-1.47792e-010	-1.47792e-010	-1.47823e-010	-1.47849e-010	-1.47734e-010	-1.47799e-010	-1.47768e-010	-1.47734e-010	-1.47734e-010	-1.47696e-010	-1.47665e-010	-1.47761e-010	-1.47761e-010	-1.4771e-010	-1.47696e-010	-1.47761e-010	-1.47658e-010	-1.47722e-010	-1.47658e-010	
CoarseR239	-1.47684e-010	-1.47684e-010	-1.47633e-010	-1.47684e-010	-1.47633e-010	-1.47595e-010	-1.47595e-010	-1.47595e-010	-1.47595e-010	-1.47595e-010	-1.47622e-010	-1.47595e-010	-1.47557e-010	-1.47622e-010	-1.47557e-010	-1.47622e-010	-1.47622e-010	-1.47519e-010	-1.47584e-010	-1.47519e-010	-1.47519e-010	
CoarseR240	-1.47545e-010	-1.47507e-010	-1.47507e-010	-1.47507e-010	-1.47507e-010	-1.47457e-010	-1.47507e-010	-1.47507e-010	-1.47507e-010	-1.47507e-010	-1.47449e-010	-1.47457e-010	-1.47457e-010	-1.47469e-010	-1.47419e-010	-1.47419e-010	-1.47381e-010	-1.47381e-010	-1.47381e-010	-1.47381e-010	-1.47411e-010	
CoarseR241	-1.47407e-010	-1.47369e-010	-1.47438e-010	-1.474e-010	-1.47369e-010	-1.474e-010	-1.474e-010	-1.474e-010	-1.47362e-010	-1.47311e-010	-1.47311e-010	-1.47311e-010	-1.47362e-010	-1.47311e-010	-1.47311e-010	-1.47311e-010	-1.47273e-010	-1.47273e-010	-1.47273e-010	-1.47273e-010	-1.47273e-010	
CoarseR242	-1.473e-010	-1.47262e-010	-1.47262e-010	-1.47262e-010	-1.47262e-010	-1.47224e-010	-1.47173e-010	-1.47224e-010	-1.47173e-010	-1.47173e-010	-1.47173e-010	-1.47186e-010	-1.47186e-010	-1.47186e-010	-1.47135e-010	-1.47135e-010	-1.47135e-010	-1.47135e-010	-1.47097e-010	-1.47097e-010	-1.47047e-010	
CoarseR243	-1.47163e-010	-1.47163e-010	-1.47125e-010	-1.4706e-010	-1.4706e-010	-1.4706e-010	-1.47022e-010	-1.47022e-010	-1.47036e-010	-1.47087e-010	-1.47036e-010	-1.47087e-010	-1.46984e-010	-1.47036e-010	-1.46971e-010	-1.46998e-010	-1.46998e-010	-1.46998e-010	-1.46998e-010	-1.46947e-010	-1.4696e-010	
CoarseR244	-1.46961e-010	-1.46961e-010	-1.46961e-010	-1.46961e-010	-1.46961e-010	-1.46974e-010	-1.46923e-010	-1.46923e-010	-1.46923e-010	-1.46923e-010	-1.46885e-010	-1.46885e-010	-1.46885e-010	-1.46885e-010	-1.46834e-010	-1.46885e-010	-1.46912e-010	-1.46847e-010	-1.46797e-010	-1.46861e-010	-1.46861e-010	
CoarseR245	-1.46875e-010	-1.46875e-010	-1.46875e-010	-1.46824e-010	-1.46824e-010	-1.46824e-010	-1.46824e-010	-1.46824e-010	-1.46787e-010	-1.46837e-010	-1.46787e-010	-1.46787e-010	-1.46787e-010	-1.46749e-010	-1.46749e-010	-1.46749e-010	-1.46749e-010	-1.46711e-010	-1.46711e-010	-1.46711e-010	-1.46711e-010	
CoarseR246	-1.46828e-010	-1.46763e-010	-1.46725e-010	-1.46725e-010	-1.46725e-010	-1.46725e-010	-1.46725e-010	-1.46739e-010	-1.46739e-010	-1.46636e-010	-1.46636e-010	-1.46636e-010	-1.46636e-010	-1.46667e-010	-1.46636e-010	-1.4665e-010	-1.46586e-010	-1.4665e-010	-1.46613e-010	-1.46548e-010	-1.46548e-010	
CoarseR247	-1.46665e-010	-1.46665e-010	-1.46665e-010	-1.46665e-010	-1.46627e-010	-1.46627e-010	-1.46627e-010	-1.46576e-010	-1.46576e-010	-1.46576e-010	-1.46576e-010	-1.46569e-010	-1.46589e-010	-1.46538e-010	-1.46538e-010	-1.46551e-010	-1.46582e-010	-1.46517e-010	-1.46531e-010	-1.46582e-010	-1.46501e-010	
CoarseR248	-1.46566e-010	-1.46566e-010	-1.46566e-010	-1.46545e-010	-1.46515e-010	-1.46515e-010	-1.46477e-010	-1.46477e-010	-1.46477e-010	-1.46477e-010	-1.46477e-010	-1.46508e-010	-1.4644e-010	-1.4644e-010	-1.4644e-010	-1.46389e-010	-1.46389e-010	-1.46402e-010	-1.46351e-010	-1.46351e-010	-1.46381e-010	
CoarseR249	-1.46404e-010	-1.46506e-010	-1.46404e-010	-1.46404e-010	-1.46404e-010	-1.46366e-010	-1.46366e-010	-1.46404e-010	-1.4638e-010	-1.4638e-010	-1.46431e-010	-1.46315e-010	-1.46329e-010	-1.46345e-010	-1.4638e-010	-1.46264e-010	-1.46329e-010	-1.46329e-010	-1.46292e-010	-1.46292e-010	-1.46292e-010	
CoarseR250	-1.46344e-010	-1.46294e-010	-1.46294e-010	-1.46294e-010	-1.46294e-010	-1.46294e-010	-1.46294e-010	-1.46243e-010	-1.46243e-010	-1.46205e-010	-1.46256e-010	-1.46205e-010	-1.46205e-010	-1.46205e-010	-1.46205e-010	-1.46205e-010	-1.46167e-010	-1.46167e-010	-1.46167e-010	-1.4613e-010	-1.4613e-010	
MinCout:	-1.4613e-010	CoarseR:	250	CoarseC:	119

	FineC0	FineC10	FineC20	FineC30	FineC40	FineC50	FineC60	FineC70	FineC80	FineC90	FineC100	FineC110	FineC120	FineC130	FineC140	FineC150	FineC160	FineC170	FineC180	FineC190	FineC200	FineC210	FineC220	FineC230	FineC240	FineC250	
FineR0	-1.49922e-010	-1.49857e-010	-1.49832e-010	-1.49832e-010	-1.49729e-010	-1.49729e-010	-1.49729e-010	-1.49729e-010	-1.49729e-010	-1.49759e-010	-1.49721e-010	-1.49721e-010	-1.49721e-010	-1.49721e-010	-1.49721e-010	-1.49772e-010	-1.49772e-010	-1.49721e-010	-1.49772e-010	-1.4969e-010	-1.49729e-010	-1.4969e-010	-1.49772e-010	-1.49772e-010	-1.4969e-010	-1.4969e-010	
FineR10	-1.48703e-010	-1.48626e-010	-1.48626e-010	-1.48588e-010	-1.48537e-010	-1.48537e-010	-1.48498e-010	-1.48498e-010	-1.48498e-010	-1.48498e-010	-1.48549e-010	-1.48549e-010	-1.48511e-010	-1.48549e-010	-1.48511e-010	-1.48511e-010	-1.48549e-010	-1.48549e-010	-1.48549e-010	-1.48511e-010	-1.48549e-010	-1.48511e-010	-1.48562e-010	-1.48511e-010	-1.48511e-010	-1.48511e-010	
FineR20	-1.48469e-010	-1.4838e-010	-1.48342e-010	-1.48304e-010	-1.48304e-010	-1.48265e-010	-1.48231e-010	-1.48231e-010	-1.48231e-010	-1.48231e-010	-1.48231e-010	-1.48244e-010	-1.48231e-010	-1.48193e-010	-1.48244e-010	-1.48193e-010	-1.48193e-010	-1.48193e-010	-1.48193e-010	-1.48193e-010	-1.48244e-010	-1.48257e-010	-1.48244e-010	-1.48244e-010	-1.48193e-010	-1.48244e-010	
FineR30	-1.4831e-010	-1.48302e-010	-1.48264e-010	-1.48175e-010	-1.48175e-010	-1.48175e-010	-1.48136e-010	-1.48136e-010	-1.48136e-010	-1.48136e-010	-1.48187e-010	-1.48136e-010	-1.48098e-010	-1.48149e-010	-1.48149e-010	-1.48149e-010	-1.48149e-010	-1.48149e-010	-1.48149e-010	-1.48136e-010	-1.48136e-010	-1.48136e-010	-1.48098e-010	-1.48136e-010	-1.48136e-010	-1.48136e-010	
FineR40	-1.48282e-010	-1.48244e-010	-1.48193e-010	-1.48141e-010	-1.4809e-010	-1.48083e-010	-1.48083e-010	-1.48083e-010	-1.48083e-010	-1.48052e-010	-1.48095e-010	-1.48095e-010	-1.48095e-010	-1.48095e-010	-1.48095e-010	-1.48095e-010	-1.48065e-010	-1.48095e-010	-1.48095e-010	-1.48095e-010	-1.48095e-010	-1.48095e-010	-1.48095e-010	-1.48095e-010	-1.48146e-010	-1.48095e-010	
FineR50	-1.48313e-010	-1.48237e-010	-1.48172e-010	-1.48134e-010	-1.48134e-010	-1.48083e-010	-1.48095e-010	-1.48045e-010	-1.48095e-010	-1.48095e-010	-1.48095e-010	-1.48095e-010	-1.48057e-010	-1.48108e-010	-1.48108e-010	-1.48057e-010	-1.48057e-010	-1.48057e-010	-1.48108e-010	-1.48108e-010	-1.48057e-010	-1.48108e-010	-1.48057e-010	-1.48057e-010	-1.48108e-010	-1.48108e-010	
FineR60	-1.4827e-010	-1.48232e-010	-1.48194e-010	-1.48156e-010	-1.48156e-010	-1.48156e-010	-1.48156e-010	-1.48118e-010	-1.48118e-010	-1.48118e-010	-1.48067e-010	-1.48083e-010	-1.48118e-010	-1.48053e-010	-1.48079e-010	-1.48118e-010	-1.48002e-010	-1.48053e-010	-1.48118e-010	-1.48083e-010	-1.48053e-010	-1.48045e-010	-1.48083e-010	-1.48083e-010	-1.48045e-010	-1.48045e-010	
FineR70	-1.48304e-010	-1.48215e-010	-1.48177e-010	-1.48139e-010	-1.48139e-010	-1.48101e-010	-1.48101e-010	-1.48101e-010	-1.48101e-010	-1.48101e-010	-1.48101e-010	-1.48101e-010	-1.48101e-010	-1.48101e-010	-1.48062e-010	-1.48062e-010	-1.48113e-010	-1.48062e-010	-1.48062e-010	-1.48062e-010	-1.48101e-010	-1.48062e-010	-1.48113e-010	-1.48062e-010	-1.48113e-010	-1.48113e-010	
FineR80	-1.48322e-010	-1.48283e-010	-1.48194e-010	-1.48156e-010	-1.48156e-010	-1.48156e-010	-1.48118e-010	-1.48118e-010	-1.48118e-010	-1.48053e-010	-1.48118e-010	-1.48084e-010	-1.48053e-010	-1.48053e-010	-1.48053e-010	-1.48084e-010	-1.48096e-010	-1.48084e-010	-1.48134e-010	-1.48045e-010	-1.48118e-010	-1.48066e-010	-1.48118e-010	-1.48053e-010	-1.48053e-010	-1.48053e-010	
FineR90	-1.48377e-010	-1.48223e-010	-1.48185e-010	-1.48147e-010	-1.48147e-010	-1.48096e-010	-1.48096e-010	-1.48109e-010	-1.48058e-010	-1.48058e-010	-1.48109e-010	-1.48139e-010	-1.48058e-010	-1.48058e-010	-1.48139e-010	-1.48139e-010	-1.48109e-010	-1.48109e-010	-1.48101e-010	-1.48101e-010	-1.48109e-010	-1.48109e-010	-1.48139e-010	-1.48139e-010	-1.48101e-010	-1.48109e-010	
FineR100	-1.48355e-010	-1.48279e-010	-1.48241e-010	-1.4819e-010	-1.48152e-010	-1.48138e-010	-1.48203e-010	-1.48152e-010	-1.48152e-010	-1.48152e-010	-1.48152e-010	-1.48152e-010	-1.48114e-010	-1.48114e-010	-1.48114e-010	-1.4813e-010	-1.48164e-010	-1.48049e-010	-1.48114e-010	-1.48114e-010	-1.4813e-010	-1.48164e-010	-1.48144e-010	-1.48164e-010	-1.48164e-010	-1.481e-010	
FineR110	-1.48381e-010	-1.48292e-010	-1.48271e-010	-1.48181e-010	-1.4813e-010	-1.48195e-010	-1.48181e-010	-1.48181e-010	-1.4813e-010	-1.48195e-010	-1.48092e-010	-1.4813e-010	-1.48092e-010	-1.48092e-010	-1.48092e-010	-1.48143e-010	-1.48143e-010	-1.48143e-010	-1.48143e-010	-1.48143e-010	-1.48143e-010	-1.48143e-010	-1.48143e-010	-1.48143e-010	-1.48143e-010	-1.48143e-010	
FineR120	-1.48342e-010	-1.48335e-010	-1.48284e-010	-1.48181e-010	-1.48143e-010	-1.48143e-010	-1.48155e-010	-1.48155e-010	-1.48155e-010	-1.48105e-010	-1.48155e-010	-1.48155e-010	-1.48155e-010	-1.48155e-010	-1.48155e-010	-1.48155e-010	-1.48186e-010	-1.48186e-010	-1.48155e-010	-1.48155e-010	-1.48155e-010	-1.48186e-010	-1.48155e-010	-1.48155e-010	-1.48155e-010	-1.48155e-010	
FineR130	-1.48371e-010	-1.48282e-010	-1.48275e-010	-1.48236e-010	-1.48275e-010	-1.48236e-010	-1.48236e-010	-1.48198e-010	-1.48198e-010	-1.48186e-010	-1.48198e-010	-1.48198e-010	-1.48198e-010	-1.48148e-010	-1.48198e-010	-1.48198e-010	-1.48198e-010	-1.48198e-010	-1.48198e-010	-1.48148e-010	-1.48198e-010	-1.48198e-010	-1.48198e-010	-1.48236e-010	-1.48198e-010	-1.48198e-010	
FineR140	-1.48402e-010	-1.48364e-010	-1.48287e-010	-1.48236e-010	-1.48236e-010	-1.48172e-010	-1.48236e-010	-1.48134e-010	-1.48198e-010	-1.48134e-010	-1.48134e-010	-1.48198e-010	-1.48134e-010	-1.48198e-010	-1.48198e-010	-1.48134e-010	-1.48134e-010	-1.48198e-010	-1.48134e-010	-1.48134e-010	-1.48198e-010	-1.48134e-010	-1.48095e-010	-1.48146e-010	-1.48134e-010	-1.48134e-010	
FineR150	-1.48414e-010	-1.48325e-010	-1.48222e-010	-1.48222e-010	-1.48184e-010	-1.48215e-010	-1.48215e-010	-1.48227e-010	-1.48265e-010	-1.48177e-010	-1.48177e-010	-1.48146e-010	-1.48177e-010	-1.48146e-010	-1.48146e-010	-1.48177e-010	-1.48177e-010	-1.48177e-010	-1.48146e-010	-1.48177e-010	-1.48227e-010	-1.48227e-010	-1.48227e-010	-1.48177e-010	-1.48227e-010	-1.48227e-010	
FineR160	-1.484e-010	-1.48324e-010	-1.48354e-010	-1.48265e-010	-1.48265e-010	-1.48265e-010	-1.48227e-010	-1.48227e-010	-1.48227e-010	-1.48227e-010	-1.48227e-010	-1.48227e-010	-1.48278e-010	-1.48227e-010	-1.4824e-010	-1.4824e-010	-1.4824e-010	-1.4824e-010	-1.4824e-010	-1.48227e-010	-1.48278e-010	-1.48278e-010	-1.48278e-010	-1.48227e-010	-1.48163e-010	-1.48227e-010	
FineR170	-1.484e-010	-1.48393e-010	-1.48354e-010	-1.48316e-010	-1.48265e-010	-1.48265e-010	-1.48227e-010	-1.48227e-010	-1.48227e-010	-1.48163e-010	-1.48227e-010	-1.48227e-010	-1.48227e-010	-1.48227e-010	-1.48227e-010	-1.48227e-010	-1.48227e-010	-1.48213e-010	-1.4824e-010	-1.4824e-010	-1.48291e-010	-1.4824e-010	-1.48175e-010	-1.4824e-010	-1.48227e-010	-1.4824e-010	
FineR180	-1.48413e-010	-1.48375e-010	-1.48354e-010	-1.48316e-010	-1.48316e-010	-1.48316e-010	-1.48278e-010	-1.48278e-010	-1.48213e-010	-1.48213e-010	-1.48213e-010	-1.48175e-010	-1.48175e-010	-1.48226e-010	-1.48175e-010	-1.48175e-010	-1.48175e-010	-1.48175e-010	-1.48226e-010	-1.48213e-010	-1.48213e-010	-1.4824e-010	-1.48213e-010	-1.48213e-010	-1.48175e-010	-1.48175e-010	
FineR190	-1.48413e-010	-1.48405e-010	-1.48405e-010	-1.48316e-010	-1.48316e-010	-1.48278e-010	-1.48264e-010	-1.48264e-010	-1.48264e-010	-1.48264e-010	-1.48256e-010	-1.48226e-010	-1.48264e-010	-1.48213e-010	-1.48226e-010	-1.48226e-010	-1.48226e-010	-1.48226e-010	-1.48256e-010	-1.48256e-010	-1.48256e-010	-1.48226e-010	-1.48226e-010	-1.48277e-010	-1.48277e-010	-1.48277e-010	
FineR200	-1.4848e-010	-1.48391e-010	-1.48353e-010	-1.48353e-010	-1.48302e-010	-1.48345e-010	-1.48264e-010	-1.48264e-010	-1.48264e-010	-1.48226e-010	-1.48264e-010	-1.48226e-010	-1.48226e-010	-1.48226e-010	-1.48226e-010	-1.48226e-010	-1.48226e-010	-1.48226e-010	-1.48307e-010	-1.48277e-010	-1.48307e-010	-1.48277e-010	-1.48307e-010	-1.48358e-010	-1.48307e-010	-1.48307e-010	
FineR210	-1.4848e-010	-1.48391e-010	-1.48353e-010	-1.48353e-010	-1.48315e-010	-1.48315e-010	-1.48315e-010	-1.48315e-010	-1.48315e-010	-1.48264e-010	-1.48264e-010	-1.48264e-010	-1.48264e-010	-1.48264e-010	-1.48277e-010	-1.48242e-010	-1.48242e-010	-1.48358e-010	-1.48307e-010	-1.48242e-010	-1.48277e-010	-1.48307e-010	-1.48277e-010	-1.48277e-010	-1.48307e-010	-1.48277e-010	
FineR220	-1.48518e-010	-1.48442e-010	-1.48391e-010	-1.48353e-010	-1.48353e-010	-1.48315e-010	-1.48345e-010	-1.48315e-010	-1.48315e-010	-1.48315e-010	-1.48315e-010	-1.48315e-010	-1.48277e-010	-1.48358e-010	-1.48212e-010	-1.48277e-010	-1.48277e-010	-1.48212e-010	-1.48277e-010	-1.48293e-010	-1.48293e-010	-1.48293e-010	-1.48327e-010	-1.48212e-010	-1.48293e-010	-1.48293e-010	
FineR230	-1.48531e-010	-1.4848e-010	-1.48391e-010	-1.48353e-010	-1.48353e-010	-1.48288e-010	-1.48315e-010	-1.4825e-010	-1.48315e-010	-1.4828e-010	-1.48315e-010	-1.4828e-010	-1.4828e-010	-1.4828e-010	-1.4825e-010	-1.4828e-010	-1.4825e-010	-1.4825e-010	-1.4825e-010	-1.4825e-010	-1.48315e-010	-1.4825e-010	-1.4825e-010	-1.48315e-010	-1.4825e-010	-1.4825e-010	
FineR240	-1.48518e-010	-1.48429e-010	-1.48391e-010	-1.48391e-010	-1.48353e-010	-1.48353e-010	-1.4825e-010	-1.48301e-010	-1.48301e-010	-1.4825e-010	-1.48331e-010	-1.4825e-010	-1.48301e-010	-1.4825e-010	-1.4828e-010	-1.4825e-010	-1.48293e-010	-1.48293e-010	-1.48263e-010	-1.48263e-010	-1.48263e-010	-1.48293e-010	-1.48293e-010	-1.48293e-010	-1.48263e-010	-1.48293e-010	
FineR250	-1.48569e-010	-1.48442e-010	-1.48391e-010	-1.48404e-010	-1.48339e-010	-1.48369e-010	-1.48301e-010	-1.48301e-010	-1.48301e-010	-1.48331e-010	-1.48293e-010	-1.48293e-010	-1.48293e-010	-1.48293e-010	-1.48293e-010	-1.48331e-010	-1.48293e-010	-1.48293e-010	-1.48293e-010	-1.48331e-010	-1.48331e-010	-1.48331e-010	-1.48344e-010	-1.48263e-010	-1.48263e-010	-1.48293e-010	
MinCout:	-1.48002e-010	FineR:	60	FineC:	160

	FineC50	FineC51	FineC52	FineC53	FineC54	FineC55	FineC56	FineC57	FineC58	FineC59	FineC60	FineC61	FineC62	FineC63	FineC64	FineC65	FineC66	FineC67	FineC68	FineC69	FineC70	
FineR0	-1.49718e-010	-1.49692e-010	-1.49743e-010	-1.49743e-010	-1.49692e-010	-1.49743e-010	-1.49731e-010	-1.49692e-010	-1.49743e-010	-1.49743e-010	-1.49782e-010	-1.49692e-010	-1.49743e-010	-1.49743e-010	-1.49743e-010	-1.49743e-010	-1.49743e-010	-1.49692e-010	-1.49731e-010	-1.49692e-010	-1.49692e-010	
FineR1	-1.4937e-010	-1.49421e-010	-1.49421e-010	-1.49421e-010	-1.49486e-010	-1.49435e-010	-1.49435e-010	-1.49451e-010	-1.49421e-010	-1.49451e-010	-1.49421e-010	-1.4937e-010	-1.4937e-010	-1.49421e-010	-1.49435e-010	-1.49421e-010	-1.49451e-010	-1.49451e-010	-1.4937e-010	-1.49435e-010	-1.49435e-010	
FineR2	-1.49223e-010	-1.49235e-010	-1.49184e-010	-1.49215e-010	-1.49223e-010	-1.49184e-010	-1.49184e-010	-1.49184e-010	-1.49215e-010	-1.49223e-010	-1.49235e-010	-1.49235e-010	-1.49266e-010	-1.49266e-010	-1.49266e-010	-1.49266e-010	-1.49235e-010	-1.49266e-010	-1.49235e-010	-1.49235e-010	-1.49184e-010	
FineR3	-1.49024e-010	-1.49024e-010	-1.49024e-010	-1.49024e-010	-1.49089e-010	-1.49089e-010	-1.49075e-010	-1.49024e-010	-1.49024e-010	-1.49024e-010	-1.49024e-010	-1.49075e-010	-1.49075e-010	-1.49067e-010	-1.49024e-010	-1.49075e-010	-1.49075e-010	-1.49036e-010	-1.49075e-010	-1.49036e-010	-1.49067e-010	
FineR4	-1.48914e-010	-1.48953e-010	-1.48965e-010	-1.48914e-010	-1.49018e-010	-1.48953e-010	-1.48914e-010	-1.48914e-010	-1.48884e-010	-1.48884e-010	-1.48914e-010	-1.48953e-010	-1.48884e-010	-1.48953e-010	-1.48914e-010	-1.48953e-010	-1.49018e-010	-1.48833e-010	-1.48949e-010	-1.48914e-010	-1.48936e-010	
FineR5	-1.48839e-010	-1.48839e-010	-1.48821e-010	-1.48839e-010	-1.48801e-010	-1.48801e-010	-1.48801e-010	-1.48852e-010	-1.48852e-010	-1.48821e-010	-1.48801e-010	-1.48771e-010	-1.48801e-010	-1.48771e-010	-1.48801e-010	-1.48801e-010	-1.48852e-010	-1.48801e-010	-1.48852e-010	-1.48852e-010	-1.48852e-010	
FineR6	-1.48708e-010	-1.48747e-010	-1.48777e-010	-1.48747e-010	-1.48747e-010	-1.48696e-010	-1.48747e-010	-1.48696e-010	-1.48696e-010	-1.48747e-010	-1.48747e-010	-1.48708e-010	-1.48696e-010	-1.48747e-010	-1.48738e-010	-1.48708e-010	-1.48708e-010	-1.48726e-010	-1.48708e-010	-1.48708e-010	-1.48738e-010	
FineR7	-1.48658e-010	-1.48658e-010	-1.48658e-010	-1.48619e-010	-1.48619e-010	-1.4867e-010	-1.48607e-010	-1.48658e-010	-1.48619e-010	-1.48658e-010	-1.48607e-010	-1.48619e-010	-1.48607e-010	-1.48619e-010	-1.48607e-010	-1.48607e-010	-1.48607e-010	-1.48619e-010	-1.48658e-010	-1.48619e-010	-1.48607e-010	
FineR8	-1.48591e-010	-1.48591e-010	-1.48591e-010	-1.48591e-010	-1.48591e-010	-1.48591e-010	-1.4854e-010	-1.48488e-010	-1.48553e-010	-1.48553e-010	-1.48553e-010	-1.48553e-010	-1.48553e-010	-1.48488e-010	-1.48553e-010	-1.48553e-010	-1.48488e-010	-1.48553e-010	-1.48553e-010	-1.48604e-010	-1.48553e-010	
FineR9	-1.48472e-010	-1.48511e-010	-1.48511e-010	-1.48511e-010	-1.48472e-010	-1.48472e-010	-1.48554e-010	-1.48472e-010	-1.48523e-010	-1.48523e-010	-1.48523e-010	-1.48523e-010	-1.48554e-010	-1.48523e-010	-1.48523e-010	-1.48523e-010	-1.48554e-010	-1.48523e-010	-1.48554e-010	-1.48554e-010	-1.48554e-010	
FineR10	-1.48473e-010	-1.48473e-010	-1.48473e-010	-1.48473e-010	-1.48473e-010	-1.48473e-010	-1.48486e-010	-1.48473e-010	-1.48524e-010	-1.48524e-010	-1.48473e-010	-1.48473e-010	-1.48473e-010	-1.48473e-010	-1.48473e-010	-1.48473e-010	-1.48473e-010	-1.48473e-010	-1.48524e-010	-1.48473e-010	-1.48473e-010	
FineR11	-1.48401e-010	-1.48482e-010	-1.48431e-010	-1.48431e-010	-1.4835e-010	-1.48401e-010	-1.48401e-010	-1.48431e-010	-1.48431e-010	-1.48482e-010	-1.48482e-010	-1.48444e-010	-1.48444e-010	-1.48482e-010	-1.48444e-010	-1.48482e-010	-1.48482e-010	-1.48431e-010	-1.48444e-010	-1.48444e-010	-1.48495e-010	
FineR12	-1.48402e-010	-1.4844e-010	-1.4844e-010	-1.4844e-010	-1.48402e-010	-1.48372e-010	-1.48372e-010	-1.4841e-010	-1.48372e-010	-1.4841e-010	-1.4841e-010	-1.4841e-010	-1.48402e-010	-1.4841e-010	-1.48402e-010	-1.48424e-010	-1.48372e-010	-1.48436e-010	-1.4844e-010	-1.48436e-010	-1.48372e-010	
FineR13	-1.48382e-010	-1.48317e-010	-1.48368e-010	-1.48368e-010	-1.48368e-010	-1.48317e-010	-1.48317e-010	-1.48317e-010	-1.48368e-010	-1.48382e-010	-1.48368e-010	-1.48368e-010	-1.48368e-010	-1.48368e-010	-1.48433e-010	-1.48368e-010	-1.48368e-010	-1.48433e-010	-1.48382e-010	-1.48382e-010	-1.48433e-010	
FineR14	-1.48348e-010	-1.48348e-010	-1.48284e-010	-1.48284e-010	-1.48334e-010	-1.48284e-010	-1.48284e-010	-1.48334e-010	-1.48348e-010	-1.48348e-010	-1.48348e-010	-1.48348e-010	-1.48284e-010	-1.48365e-010	-1.48284e-010	-1.48284e-010	-1.48284e-010	-1.48348e-010	-1.48348e-010	-1.48284e-010	-1.48348e-010	
FineR15	-1.4828e-010	-1.4825e-010	-1.4828e-010	-1.4828e-010	-1.48331e-010	-1.48314e-010	-1.48331e-010	-1.48314e-010	-1.4828e-010	-1.48345e-010	-1.4825e-010	-1.48331e-010	-1.4828e-010	-1.48345e-010	-1.48345e-010	-1.48345e-010	-1.48314e-010	-1.4828e-010	-1.48314e-010	-1.4828e-010	-1.48314e-010	
FineR16	-1.48246e-010	-1.48311e-010	-1.48311e-010	-1.48246e-010	-1.48246e-010	-1.48311e-010	-1.48311e-010	-1.48196e-010	-1.48311e-010	-1.48311e-010	-1.48311e-010	-1.48246e-010	-1.48281e-010	-1.48246e-010	-1.48311e-010	-1.48246e-010	-1.48281e-010	-1.48311e-010	-1.48297e-010	-1.48259e-010	-1.48297e-010	
FineR17	-1.48213e-010	-1.48213e-010	-1.48213e-010	-1.48213e-010	-1.48213e-010	-1.48213e-010	-1.48213e-010	-1.48213e-010	-1.48213e-010	-1.48264e-010	-1.48264e-010	-1.48277e-010	-1.48213e-010	-1.48264e-010	-1.48264e-010	-1.48213e-010	-1.48213e-010	-1.48264e-010	-1.48213e-010	-1.48213e-010	-1.48264e-010	
FineR18	-1.4826e-010	-1.4826e-010	-1.48298e-010	-1.48248e-010	-1.48217e-010	-1.4826e-010	-1.4826e-010	-1.4826e-010	-1.48209e-010	-1.48217e-010	-1.4823e-010	-1.48217e-010	-1.48217e-010	-1.48269e-010	-1.48217e-010	-1.48217e-010	-1.48217e-010	-1.48166e-010	-1.48179e-010	-1.4823e-010	-1.48179e-010	
FineR19	-1.48184e-010	-1.48252e-010	-1.48184e-010	-1.48214e-010	-1.48184e-010	-1.48252e-010	-1.48171e-010	-1.48236e-010	-1.48287e-010	-1.48222e-010	-1.48222e-010	-1.48222e-010	-1.48171e-010	-1.48171e-010	-1.48184e-010	-1.48171e-010	-1.48171e-010	-1.48171e-010	-1.48133e-010	-1.48133e-010	-1.48171e-010	
FineR20	-1.48176e-010	-1.48176e-010	-1.48137e-010	-1.48176e-010	-1.48176e-010	-1.48176e-010	-1.48137e-010	-1.48176e-010	-1.48137e-010	-1.48206e-010	-1.48137e-010	-1.48219e-010	-1.48137e-010	-1.48168e-010	-1.48137e-010	-1.48168e-010	-1.48188e-010	-1.48176e-010	-1.48188e-010	-1.48188e-010	-1.48188e-010	
MinCout:	-1.48133e-010	FineR:	19	FineC:	68

