	CoarseC0	CoarseC10	CoarseC20	CoarseC30	CoarseC40	CoarseC50	CoarseC60	CoarseC70	CoarseC80	CoarseC90	CoarseC100	CoarseC110	CoarseC120	CoarseC130	CoarseC140	CoarseC150	CoarseC160	CoarseC170	CoarseC180	CoarseC190	CoarseC200	CoarseC210	CoarseC220	CoarseC230	CoarseC240	CoarseC250	
CoarseR0	-1.7824e-011	-7.08441e-011	-7.4812e-011	-2.67718e-011	-7.21114e-011	-2.94996e-011	-2.70027e-011	-2.97002e-011	-7.20497e-011	-2.7161e-011	-2.99005e-011	-2.33682e-011	-2.73914e-011	-7.20523e-011	-3.02693e-011	-2.76298e-011	-7.19776e-011	-2.78291e-011	-2.78597e-011	-1.86722e-011	-3.07803e-011	-2.82022e-011	-2.41901e-011	-2.36235e-011	-2.84721e-011	-1.91948e-011	
CoarseR10	-1.92943e-011	-7.10944e-011	-7.51459e-011	-2.85701e-011	-7.23919e-011	-3.13332e-011	-2.87341e-011	-3.15645e-011	-7.23686e-011	-2.89221e-011	-3.17944e-011	-2.4896e-011	-2.92546e-011	-7.22446e-011	-3.2159e-011	-2.94897e-011	-7.22714e-011	-2.97188e-011	-2.98214e-011	-2.03712e-011	-3.27286e-011	-3.01207e-011	-2.5913e-011	-2.54414e-011	-3.04181e-011	-2.08764e-011	
CoarseR20	-2.11876e-011	-7.14575e-011	-7.5455e-011	-3.07909e-011	-7.28268e-011	-3.38412e-011	-3.10872e-011	-3.39653e-011	-7.26089e-011	-3.14396e-011	-3.42941e-011	-2.72203e-011	-3.18065e-011	-7.25989e-011	-3.47567e-011	-3.2173e-011	-7.26505e-011	-3.25095e-011	-3.26018e-011	-2.28239e-011	-3.56685e-011	-3.30765e-011	-2.87754e-011	-2.83829e-011	-3.35751e-011	-2.36864e-011	
CoarseR30	-2.41782e-011	-7.19695e-011	-7.61026e-011	-3.43876e-011	-7.33372e-011	-3.7322e-011	-3.49464e-011	-3.76151e-011	-7.32564e-011	-3.53658e-011	-3.80711e-011	-3.10669e-011	-3.58887e-011	-7.33124e-011	-3.89741e-011	-3.64477e-011	-7.33234e-011	-3.69179e-011	-3.7116e-011	-2.67961e-011	-4.02077e-011	-3.78532e-011	-3.34307e-011	-3.30145e-011	-3.86033e-011	-2.80663e-011	
CoarseR40	-2.88547e-011	-7.36533e-011	-7.79311e-011	-3.95283e-011	-7.55239e-011	-4.24873e-011	-3.98618e-011	-4.26543e-011	-7.60389e-011	-4.01927e-011	-4.29161e-011	-3.57153e-011	-4.03971e-011	-7.6387e-011	-4.31873e-011	-4.04892e-011	-7.64772e-011	-4.05199e-011	-4.05254e-011	-3.01719e-011	-4.33574e-011	-4.07275e-011	-3.6105e-011	-3.55737e-011	-4.08683e-011	-3.04752e-011	
CoarseR50	-3.09296e-011	-7.60431e-011	-8.02946e-011	-4.09529e-011	-7.73503e-011	-4.35633e-011	-4.07997e-011	-4.34886e-011	-7.72589e-011	-4.0751e-011	-4.34805e-011	-3.62029e-011	-4.07817e-011	-7.70977e-011	-4.3441e-011	-4.0742e-011	-7.70731e-011	-4.0742e-011	-4.07727e-011	-3.05607e-011	-4.36445e-011	-4.09134e-011	-3.62948e-011	-3.57578e-011	-4.09892e-011	-3.07204e-011	
CoarseR60	-3.11108e-011	-7.64483e-011	-8.06985e-011	-4.11297e-011	-7.77315e-011	-4.37494e-011	-4.09855e-011	-4.36747e-011	-7.75325e-011	-4.08755e-011	-4.35246e-011	-3.63192e-011	-4.08972e-011	-7.74032e-011	-4.3556e-011	-4.08575e-011	-7.73786e-011	-4.09279e-011	-4.08882e-011	-3.07079e-011	-4.37595e-011	-4.10289e-011	-3.64111e-011	-3.5942e-011	-4.11299e-011	-3.08375e-011	
CoarseR70	-3.59293e-011	-7.65641e-011	-8.08136e-011	-4.11442e-011	-7.78177e-011	-4.37163e-011	-4.109e-011	-4.37478e-011	-7.76002e-011	-4.08448e-011	-4.35326e-011	-3.62609e-011	-4.08358e-011	-7.73663e-011	-4.34931e-011	-4.08665e-011	-7.73848e-011	-4.09368e-011	-4.08972e-011	-3.07218e-011	-4.3657e-011	-4.10378e-011	-3.64175e-011	-3.58842e-011	-4.10685e-011	-3.08165e-011	
CoarseR80	-3.5435e-011	-8.12791e-011	-8.08383e-011	-4.11135e-011	-7.7834e-011	-4.36909e-011	-4.10342e-011	-4.36513e-011	-7.76863e-011	-4.09548e-011	-4.36117e-011	-3.6276e-011	-4.08755e-011	-7.74873e-011	-4.35326e-011	-4.09458e-011	-7.75005e-011	-4.09062e-011	-4.09765e-011	-3.07374e-011	-4.37361e-011	-4.10775e-011	-3.64326e-011	-3.59636e-011	-4.10127e-011	-3.08304e-011	
CoarseR90	-3.26311e-011	-7.89836e-011	-8.45888e-011	-4.11929e-011	-7.79202e-011	-4.377e-011	-4.10738e-011	-4.37304e-011	-7.78718e-011	-4.09945e-011	-4.36811e-011	-3.63159e-011	-4.089e-011	-7.76728e-011	-4.36416e-011	-4.09207e-011	-7.76912e-011	-4.0881e-011	-4.09514e-011	-3.08126e-011	-4.37756e-011	-4.11226e-011	-3.65046e-011	-3.60356e-011	-4.11533e-011	-3.09056e-011	
CoarseR100	-3.20838e-011	-7.77327e-011	-8.22001e-011	-4.23222e-011	-7.79981e-011	-4.37385e-011	-4.11135e-011	-4.377e-011	-7.79066e-011	-4.10342e-011	-4.37207e-011	-3.63879e-011	-4.10307e-011	-7.77076e-011	-4.36162e-011	-4.09604e-011	-7.7726e-011	-4.10217e-011	-4.10217e-011	-3.0788e-011	-4.37502e-011	-4.11623e-011	-3.64798e-011	-3.60106e-011	-4.1193e-011	-3.08809e-011	
CoarseR110	-3.18029e-011	-7.74466e-011	-8.16625e-011	-4.18717e-011	-7.8202e-011	-4.3814e-011	-4.11587e-011	-4.38059e-011	-7.79845e-011	-4.10794e-011	-4.36953e-011	-3.64969e-011	-4.10703e-011	-7.79168e-011	-4.37171e-011	-4.10362e-011	-7.79299e-011	-4.09965e-011	-4.10669e-011	-3.08895e-011	-4.38906e-011	-4.11678e-011	-3.66209e-011	-3.61114e-011	-4.11678e-011	-3.10893e-011	
CoarseR120	-3.17869e-011	-7.73767e-011	-8.16654e-011	-4.16835e-011	-7.82983e-011	-4.3885e-011	-4.12596e-011	-4.38753e-011	-7.82498e-011	-4.11496e-011	-4.38357e-011	-3.65412e-011	-4.12164e-011	-7.80509e-011	-4.37925e-011	-4.11371e-011	-7.80262e-011	-4.12074e-011	-4.12074e-011	-3.09981e-011	-4.3895e-011	-4.12381e-011	-3.66253e-011	-3.6155e-011	-4.12436e-011	-3.11406e-011	
CoarseR130	-3.17284e-011	-7.73037e-011	-8.1498e-011	-4.14544e-011	-7.83414e-011	-4.39895e-011	-4.12993e-011	-4.39797e-011	-7.81506e-011	-4.11893e-011	-4.39006e-011	-3.66058e-011	-4.11461e-011	-7.80509e-011	-4.37611e-011	-4.11065e-011	-3.21592e-011	-4.11371e-011	-4.12074e-011	-3.10066e-011	-4.3895e-011	-4.12039e-011	-3.65962e-011	-3.61584e-011	-4.12436e-011	-3.10995e-011	
CoarseR140	-3.15013e-011	-7.72018e-011	-8.13815e-011	-4.14599e-011	-7.84029e-011	-4.40192e-011	-4.13389e-011	-4.39858e-011	-7.82929e-011	-4.11893e-011	-4.38753e-011	-3.66132e-011	-4.10814e-011	-7.80857e-011	-4.38321e-011	-4.11517e-011	-7.81124e-011	-4.1112e-011	-4.1112e-011	-3.10066e-011	-4.39346e-011	-4.1213e-011	-3.66681e-011	-3.61584e-011	-4.12742e-011	-3.10749e-011	
CoarseR150	-3.70707e-011	-7.71668e-011	-8.14484e-011	-4.1496e-011	-7.84754e-011	-4.40649e-011	-4.14093e-011	-4.40254e-011	-7.83277e-011	-4.13298e-011	-4.39148e-011	-3.66132e-011	-4.11914e-011	-7.82279e-011	-4.38619e-011	-4.11823e-011	-7.81418e-011	-4.12129e-011	-4.12129e-011	-3.10431e-011	-4.39705e-011	-4.12436e-011	-3.66035e-011	-3.61335e-011	-4.13138e-011	-3.11763e-011	
CoarseR160	-3.14769e-011	-7.70569e-011	-3.23227e-011	-4.13142e-011	-7.85369e-011	-4.4136e-011	-4.13751e-011	-7.98913e-011	-7.83277e-011	-4.13298e-011	-7.97812e-011	-3.65885e-011	-4.11914e-011	-7.82279e-011	-4.38068e-011	-4.12526e-011	-7.81151e-011	-4.12526e-011	-4.12129e-011	-3.10834e-011	-7.96911e-011	-4.12832e-011	-3.66035e-011	-3.61657e-011	-4.12491e-011	-3.11763e-011	
CoarseR170	-3.13774e-011	-7.70048e-011	-8.12962e-011	-4.11901e-011	-7.85717e-011	-4.41008e-011	-4.14454e-011	-4.40613e-011	-7.83625e-011	-4.13354e-011	-4.39507e-011	-3.67586e-011	-4.12275e-011	-7.83189e-011	-4.39075e-011	-4.11878e-011	-3.2301e-011	-4.12526e-011	-4.11878e-011	-3.11646e-011	-4.401e-011	-4.12888e-011	-3.67124e-011	-3.62342e-011	-4.12888e-011	-3.11517e-011	
CoarseR180	-3.13796e-011	-7.70078e-011	-8.12927e-011	-4.11901e-011	-7.86332e-011	-4.41008e-011	-4.13806e-011	-4.41008e-011	-3.34645e-011	-4.13012e-011	-4.39866e-011	-3.67261e-011	-4.12275e-011	-7.83619e-011	-4.39075e-011	-4.12184e-011	-7.82491e-011	-4.12184e-011	-4.12185e-011	-3.11254e-011	-4.39749e-011	-4.12888e-011	-3.67489e-011	-3.62739e-011	-4.13896e-011	-3.12183e-011	
CoarseR190	-3.125e-011	-7.69996e-011	-3.22652e-011	-4.16311e-011	-7.86864e-011	-4.41465e-011	-4.15211e-011	-4.41367e-011	-7.85764e-011	-4.13715e-011	-4.40576e-011	-3.66616e-011	-4.13033e-011	-7.84582e-011	-4.3983e-011	-4.12636e-011	-7.83721e-011	-4.12887e-011	-4.12943e-011	-3.12268e-011	-4.40459e-011	-4.13249e-011	-3.67489e-011	-3.631e-011	-4.13951e-011	-3.13197e-011	
CoarseR200	-3.12869e-011	-7.70293e-011	-8.13456e-011	-4.16311e-011	-7.86249e-011	-8.30215e-011	-4.14508e-011	-4.40657e-011	-7.84617e-011	-4.13409e-011	-4.39254e-011	-3.65926e-011	-4.11969e-011	-3.23558e-011	-4.3912e-011	-4.12275e-011	-7.82491e-011	-4.12275e-011	-4.11878e-011	-3.10588e-011	-7.96644e-011	-4.12184e-011	-3.66109e-011	-3.61408e-011	-4.12491e-011	-3.11254e-011	
CoarseR210	-3.67518e-011	-7.69759e-011	-8.13359e-011	-4.15303e-011	-3.25757e-011	-4.41404e-011	-4.14508e-011	-4.3965e-011	-7.85048e-011	-4.13409e-011	-4.402e-011	-3.66324e-011	-4.11969e-011	-3.23973e-011	-4.38761e-011	-4.11572e-011	-7.82307e-011	-4.11572e-011	-4.12581e-011	-3.10991e-011	-4.39373e-011	-4.12887e-011	-3.66508e-011	-3.66508e-011	-4.12887e-011	-3.11345e-011	
CoarseR220	-3.68239e-011	-7.70509e-011	-3.23474e-011	-4.15608e-011	-7.8668e-011	-4.40755e-011	-4.14508e-011	-4.4036e-011	-7.84588e-011	-4.12706e-011	-4.39903e-011	-3.66004e-011	-4.12365e-011	-7.83783e-011	-4.38112e-011	-4.11969e-011	-7.82922e-011	-4.11878e-011	-4.12581e-011	-3.10991e-011	-4.38725e-011	-4.12184e-011	-3.66508e-011	-3.61408e-011	-4.12581e-011	-3.11602e-011	
CoarseR230	-3.68807e-011	-3.20267e-011	-3.24523e-011	-4.15303e-011	-7.87056e-011	-8.29333e-011	-4.13897e-011	-4.3965e-011	-7.83974e-011	-4.13103e-011	-4.39588e-011	-3.65314e-011	-4.11663e-011	-7.83169e-011	-8.26614e-011	-4.11266e-011	-7.81693e-011	-4.10869e-011	-4.11572e-011	-3.10325e-011	-4.38725e-011	-4.11537e-011	-3.65818e-011	-3.66508e-011	-4.1224e-011	-3.11602e-011	
CoarseR240	-3.13899e-011	-7.70569e-011	-3.24523e-011	-4.16004e-011	-3.26813e-011	-8.3032e-011	-4.13805e-011	-7.998e-011	-7.8379e-011	-4.13103e-011	-4.38842e-011	-3.66324e-011	-4.12671e-011	-7.83169e-011	-4.377e-011	-4.12274e-011	-7.82922e-011	-4.11878e-011	-4.11878e-011	-3.10409e-011	-4.38725e-011	-4.11537e-011	-3.65818e-011	-3.6112e-011	-4.1224e-011	-3.11602e-011	
CoarseR250	-3.15933e-011	-7.72201e-011	-8.16232e-011	-4.15608e-011	-7.87487e-011	-4.40755e-011	-4.14905e-011	-4.39947e-011	-7.85396e-011	-4.13805e-011	-4.39552e-011	-3.66324e-011	-4.12024e-011	-7.83783e-011	-4.3841e-011	-4.11628e-011	-7.83353e-011	-4.11231e-011	-4.11934e-011	-3.11339e-011	-4.38725e-011	-4.11537e-011	-3.65818e-011	-3.66508e-011	-4.1224e-011	-3.11602e-011	
MinCout:	-1.7824e-011	CoarseR:	0	CoarseC:	0

	CoarseC0	CoarseC1	CoarseC2	CoarseC3	CoarseC4	CoarseC5	CoarseC6	CoarseC7	CoarseC8	CoarseC9	CoarseC10	CoarseC11	CoarseC12	CoarseC13	CoarseC14	CoarseC15	CoarseC16	CoarseC17	CoarseC18	CoarseC19	CoarseC20	
CoarseR220	-3.15977e-011	-3.22153e-011	-3.20867e-011	-7.69822e-011	-3.19863e-011	-7.68161e-011	-7.97544e-011	-4.77701e-011	-3.29017e-011	-7.67731e-011	-7.965e-011	-4.76982e-011	-7.67116e-011	-4.76982e-011	-4.77701e-011	-4.78707e-011	-3.21288e-011	-7.82265e-011	-8.1123e-011	-4.38204e-011	-7.8165e-011	
CoarseR221	-3.11242e-011	-3.19219e-011	-3.18576e-011	-7.67546e-011	-3.18576e-011	-7.6693e-011	-7.95703e-011	-4.78027e-011	-3.27353e-011	-3.18576e-011	-7.95886e-011	-4.76982e-011	-7.665e-011	-4.76982e-011	-4.77701e-011	-4.77701e-011	-3.20926e-011	-7.82696e-011	-8.10617e-011	-4.38599e-011	-7.8165e-011	
CoarseR222	-3.11242e-011	-3.1899e-011	-3.18609e-011	-7.67546e-011	-3.18576e-011	-3.18576e-011	-7.96317e-011	-4.76982e-011	-3.28377e-011	-7.6693e-011	-7.96317e-011	-4.76982e-011	-7.6693e-011	-7.95886e-011	-4.76982e-011	-4.77701e-011	-3.20926e-011	-7.82081e-011	-8.11661e-011	-4.39309e-011	-3.32103e-011	
CoarseR223	-3.11912e-011	-3.19252e-011	-3.18609e-011	-7.67976e-011	-3.17965e-011	-7.67628e-011	-3.17965e-011	-4.77376e-011	-3.11242e-011	-7.67546e-011	-7.96317e-011	-7.96317e-011	-7.65885e-011	-7.95273e-011	-4.76262e-011	-4.76982e-011	-3.20698e-011	-7.82081e-011	-8.11047e-011	-4.38599e-011	-7.81466e-011	
CoarseR224	-3.11992e-011	-3.1899e-011	-3.1899e-011	-7.6693e-011	-3.18347e-011	-3.18347e-011	-7.95703e-011	-4.77376e-011	-3.2815e-011	-7.6693e-011	-7.95703e-011	-7.95273e-011	-7.65967e-011	-4.76656e-011	-4.76982e-011	-4.76982e-011	-3.09486e-011	-7.82081e-011	-8.10617e-011	-8.26042e-011	-7.81118e-011	
CoarseR225	-3.10918e-011	-3.18609e-011	-3.11242e-011	-7.6693e-011	-3.17965e-011	-7.67012e-011	-3.17965e-011	-4.77376e-011	-3.11588e-011	-7.6693e-011	-7.95703e-011	-4.77376e-011	-7.6693e-011	-7.95703e-011	-4.76656e-011	-4.77376e-011	-3.20698e-011	-7.82081e-011	-8.10434e-011	-4.38599e-011	-7.82164e-011	
CoarseR226	-3.11646e-011	-3.18609e-011	-3.18609e-011	-7.6768e-011	-3.12294e-011	-7.6768e-011	-7.95756e-011	-4.78134e-011	-3.27766e-011	-7.67064e-011	-3.17965e-011	-4.7774e-011	-7.68058e-011	-4.77376e-011	-4.77376e-011	-4.78095e-011	-3.10204e-011	-7.83126e-011	-8.12791e-011	-4.38697e-011	-7.81897e-011	
CoarseR227	-3.11646e-011	-3.19023e-011	-3.19023e-011	-3.19023e-011	-3.18609e-011	-7.6768e-011	-3.17965e-011	-4.78134e-011	-3.28406e-011	-7.6768e-011	-7.96456e-011	-4.7774e-011	-7.68058e-011	-4.77088e-011	-4.77376e-011	-4.77807e-011	-3.21372e-011	-7.82512e-011	-8.12178e-011	-4.38697e-011	-7.82594e-011	
CoarseR228	-3.12294e-011	-3.19023e-011	-3.19686e-011	-7.6768e-011	-3.12294e-011	-7.6811e-011	-7.96456e-011	-4.78134e-011	-3.28432e-011	-7.6768e-011	-7.96456e-011	-4.7774e-011	-7.6768e-011	-4.77088e-011	-4.77088e-011	-4.78095e-011	-3.21755e-011	-7.82512e-011	-8.11478e-011	-4.38697e-011	-7.81897e-011	
CoarseR229	-3.12352e-011	-3.19686e-011	-3.19686e-011	-7.6811e-011	-3.19043e-011	-7.6811e-011	-7.96886e-011	-4.77414e-011	-3.28846e-011	-7.6768e-011	-7.96456e-011	-4.77414e-011	-7.6768e-011	-4.7702e-011	-4.77088e-011	-4.77088e-011	-3.21755e-011	-7.82512e-011	-8.11802e-011	-4.38697e-011	-7.82594e-011	
CoarseR230	-3.12698e-011	-3.19304e-011	-3.19686e-011	-7.6811e-011	-3.18661e-011	-7.6811e-011	-7.96886e-011	-4.78134e-011	-3.28846e-011	-7.67495e-011	-7.96886e-011	-4.77414e-011	-7.6811e-011	-4.78134e-011	-4.77482e-011	-4.78134e-011	-3.21091e-011	-7.83263e-011	-8.11102e-011	-4.38697e-011	-7.8195e-011	
CoarseR231	-3.12352e-011	-3.19304e-011	-3.19686e-011	-7.6811e-011	-3.18661e-011	-7.6811e-011	-7.96509e-011	-4.78134e-011	-3.28462e-011	-7.6811e-011	-7.96886e-011	-4.77414e-011	-7.6811e-011	-4.78134e-011	-4.77482e-011	-4.78853e-011	-3.20709e-011	-7.82565e-011	-8.11533e-011	-4.39092e-011	-7.82565e-011	
CoarseR232	-3.12352e-011	-3.19686e-011	-3.19718e-011	-7.68162e-011	-3.18661e-011	-7.67925e-011	-7.96886e-011	-4.77414e-011	-3.28462e-011	-7.6811e-011	-7.96886e-011	-4.77414e-011	-7.67495e-011	-4.77482e-011	-4.77482e-011	-4.77482e-011	-3.21372e-011	-7.82942e-011	-8.12233e-011	-4.39092e-011	-7.82648e-011	
CoarseR233	-3.12352e-011	-3.201e-011	-3.19718e-011	-7.6854e-011	-3.19075e-011	-7.68162e-011	-7.96939e-011	-4.77808e-011	-3.28876e-011	-7.67925e-011	-7.96509e-011	-4.76763e-011	-7.67547e-011	-4.76763e-011	-4.78134e-011	-4.7777e-011	-3.21787e-011	-7.82565e-011	-8.12233e-011	-4.39092e-011	-7.8195e-011	
CoarseR234	-3.12352e-011	-3.19718e-011	-3.19718e-011	-7.68162e-011	-3.19075e-011	-7.67547e-011	-7.96939e-011	-4.77808e-011	-3.28876e-011	-7.67547e-011	-7.97316e-011	-4.77808e-011	-7.67925e-011	-4.77157e-011	-4.77482e-011	-4.77482e-011	-3.21787e-011	-7.82565e-011	-8.12233e-011	-4.39092e-011	-7.8195e-011	
CoarseR235	-3.12756e-011	-3.19718e-011	-3.19718e-011	-7.68162e-011	-3.19075e-011	-7.68162e-011	-7.96939e-011	-4.77414e-011	-3.28876e-011	-7.6854e-011	-7.97316e-011	-4.77157e-011	-7.67925e-011	-4.77157e-011	-4.78134e-011	-4.7777e-011	-3.21144e-011	-7.82996e-011	-8.11963e-011	-4.39092e-011	-7.82381e-011	
CoarseR236	-3.12756e-011	-3.19718e-011	-3.19718e-011	-7.68593e-011	-3.19075e-011	-7.68244e-011	-7.96939e-011	-4.77521e-011	-3.28876e-011	-7.68675e-011	-7.96702e-011	-4.77521e-011	-7.6854e-011	-4.77808e-011	-4.77482e-011	-4.77482e-011	-3.21787e-011	-7.82996e-011	-8.12663e-011	-4.38084e-011	-7.82381e-011	
CoarseR237	-3.12756e-011	-3.19718e-011	-3.19718e-011	-7.68593e-011	-3.19075e-011	-7.68593e-011	-7.96939e-011	-4.77808e-011	-3.28209e-011	-7.68593e-011	-7.97316e-011	-4.77808e-011	-7.68162e-011	-4.77157e-011	-4.77876e-011	-4.77482e-011	-3.21144e-011	-7.83694e-011	-8.12663e-011	-4.39092e-011	-7.82812e-011	
CoarseR238	-3.1241e-011	-3.20132e-011	-3.20132e-011	-7.68593e-011	-3.20132e-011	-7.68593e-011	-7.97369e-011	-4.77521e-011	-3.2885e-011	-7.68593e-011	-7.97047e-011	-4.77521e-011	-7.67843e-011	-4.78528e-011	-4.77876e-011	-4.77482e-011	-3.22201e-011	-7.83611e-011	-8.11963e-011	-4.39488e-011	-7.82996e-011	
CoarseR239	-3.12756e-011	-3.20776e-011	-3.20132e-011	-7.69208e-011	-3.20132e-011	-7.68593e-011	-7.97369e-011	-4.77915e-011	-3.29263e-011	-7.68593e-011	-7.97746e-011	-4.78528e-011	-7.68971e-011	-4.78528e-011	-4.77876e-011	-4.77876e-011	-3.21538e-011	-7.84041e-011	-8.12576e-011	-4.39488e-011	-7.82996e-011	
CoarseR240	-3.12756e-011	-3.20776e-011	-3.20132e-011	-7.69208e-011	-3.20132e-011	-7.68593e-011	-7.97369e-011	-4.78922e-011	-3.29263e-011	-7.68593e-011	-7.9836e-011	-4.7824e-011	-7.68889e-011	-4.77876e-011	-4.77876e-011	-4.77944e-011	-3.2218e-011	-7.84041e-011	-8.11876e-011	-4.39802e-011	-7.83344e-011	
MinCout:	-3.09486e-011	CoarseR:	224	CoarseC:	16

	FineC0	FineC10	FineC20	FineC30	FineC40	FineC50	FineC60	FineC70	FineC80	FineC90	FineC100	FineC110	FineC120	FineC130	FineC140	FineC150	FineC160	FineC170	FineC180	FineC190	FineC200	FineC210	FineC220	FineC230	FineC240	FineC250	
FineR0	-4.81366e-011	-4.29306e-011	-4.19648e-011	-3.2371e-011	-3.94329e-011	-3.79379e-011	-3.19558e-011	-3.37073e-011	-8.46598e-011	-2.98689e-011	-8.752e-011	-3.10788e-011	-3.16033e-011	-8.12942e-011	-3.34353e-011	-3.56257e-011	-3.62422e-011	-2.98033e-011	-3.02854e-011	-1.14529e-010	-2.9958e-011	-3.02412e-011	-5.8877e-011	-3.18262e-011	-1.00679e-010	-7.33461e-011	
FineR10	-4.7896e-011	-4.2793e-011	-4.18284e-011	-3.22396e-011	-3.93024e-011	-3.7872e-011	-3.18273e-011	-3.35408e-011	-8.46418e-011	-2.97784e-011	-8.75021e-011	-3.1057e-011	-3.15098e-011	-8.12846e-011	-3.34129e-011	-3.55621e-011	-3.61178e-011	-2.98438e-011	-3.01955e-011	-1.14513e-010	-2.99337e-011	-3.01762e-011	-5.87883e-011	-3.19055e-011	-1.00662e-010	-7.33274e-011	
FineR20	-4.78528e-011	-4.27223e-011	-4.18677e-011	-3.22736e-011	-3.93335e-011	-3.7738e-011	-3.18273e-011	-3.35408e-011	-8.45805e-011	-2.97784e-011	-8.7441e-011	-3.0991e-011	-3.15098e-011	-8.12146e-011	-3.34129e-011	-3.56038e-011	-3.60896e-011	-2.97784e-011	-3.02363e-011	-1.14548e-010	-2.99337e-011	-3.02173e-011	-5.88574e-011	-3.18031e-011	-1.00679e-010	-7.32706e-011	
FineR30	-4.78528e-011	-4.27619e-011	-4.18677e-011	-3.23411e-011	-3.93335e-011	-3.78472e-011	-3.18273e-011	-3.35824e-011	-8.46418e-011	-2.98441e-011	-8.75455e-011	-3.10555e-011	-3.15766e-011	-8.13372e-011	-3.35185e-011	-3.56003e-011	-3.61947e-011	-2.98441e-011	-3.02319e-011	-1.14608e-010	-3.00768e-011	-3.02823e-011	-5.88505e-011	-3.19055e-011	-1.00722e-010	-7.3432e-011	
FineR40	-4.78596e-011	-4.27583e-011	-4.1803e-011	-3.22736e-011	-3.93335e-011	-3.78391e-011	-3.18273e-011	-3.3621e-011	-8.45986e-011	-2.98805e-011	-8.7441e-011	-3.10288e-011	-3.15766e-011	-8.12704e-011	-3.34516e-011	-3.54949e-011	-3.61531e-011	-2.97784e-011	-3.02074e-011	-1.14548e-010	-2.99705e-011	-3.02823e-011	-5.88574e-011	-3.18412e-011	-1.00662e-010	-7.33274e-011	
FineR50	-4.78596e-011	-4.27223e-011	-4.1803e-011	-3.22334e-011	-3.93335e-011	-3.77779e-011	-3.18273e-011	-3.35185e-011	-8.45805e-011	-2.97784e-011	-8.74843e-011	-3.10288e-011	-3.15098e-011	-8.12146e-011	-3.34129e-011	-3.55621e-011	-3.61313e-011	-2.97784e-011	-3.02729e-011	-1.14548e-010	-2.99337e-011	-3.02173e-011	-5.87883e-011	-3.18412e-011	-1.00662e-010	-7.33086e-011	
FineR60	-4.78596e-011	-4.27979e-011	-4.1803e-011	-3.23411e-011	-3.94029e-011	-3.78472e-011	-3.19289e-011	-3.3685e-011	-8.47031e-011	-2.98441e-011	-8.75455e-011	-3.10934e-011	-3.16168e-011	-8.13372e-011	-3.35185e-011	-3.56003e-011	-3.62582e-011	-2.98441e-011	-3.02727e-011	-1.14713e-010	-3.004e-011	-3.02817e-011	-5.89516e-011	-3.19698e-011	-1.00827e-010	-7.3432e-011	
FineR70	-4.78596e-011	-4.27677e-011	-4.1803e-011	-3.23411e-011	-3.93335e-011	-3.78472e-011	-3.18273e-011	-3.3621e-011	-8.45805e-011	-2.97784e-011	-8.74843e-011	-3.0991e-011	-3.15155e-011	-8.12146e-011	-3.34545e-011	-3.56038e-011	-3.61595e-011	-2.97784e-011	-3.01708e-011	-1.14452e-010	-2.99748e-011	-3.02173e-011	-5.88378e-011	-3.18444e-011	-1.00679e-010	-7.32706e-011	
FineR80	-4.78634e-011	-4.27619e-011	-4.18677e-011	-3.22736e-011	-3.93335e-011	-3.78425e-011	-3.18677e-011	-3.35571e-011	-8.45805e-011	-2.98193e-011	-8.74843e-011	-3.0991e-011	-3.155e-011	-8.12146e-011	-3.34545e-011	-3.56038e-011	-3.61313e-011	-2.97784e-011	-3.02074e-011	-1.14513e-010	-2.99746e-011	-3.02173e-011	-5.87883e-011	-3.18444e-011	-1.00705e-010	-7.33703e-011	
FineR90	-4.79354e-011	-4.27619e-011	-4.1803e-011	-3.22396e-011	-3.93335e-011	-3.78425e-011	-3.18005e-011	-3.35185e-011	-8.45432e-011	-2.97784e-011	-8.74472e-011	-3.0991e-011	-3.155e-011	-8.11963e-011	-3.33906e-011	-3.55402e-011	-3.61313e-011	-2.97784e-011	-3.01708e-011	-1.14452e-010	-2.99093e-011	-3.02173e-011	-5.88309e-011	-3.18444e-011	-1.00669e-010	-7.32706e-011	
FineR100	-4.78634e-011	-4.27619e-011	-4.18677e-011	-3.22736e-011	-3.93335e-011	-3.77779e-011	-3.19324e-011	-3.35185e-011	-8.45805e-011	-2.98193e-011	-8.7441e-011	-3.0991e-011	-3.155e-011	-8.12146e-011	-3.34545e-011	-3.55367e-011	-3.61947e-011	-2.97784e-011	-3.01708e-011	-1.14548e-010	-2.99746e-011	-3.02823e-011	-5.87883e-011	-3.19467e-011	-1.00705e-010	-7.33703e-011	
FineR110	-4.7899e-011	-4.28326e-011	-4.1803e-011	-3.23411e-011	-3.93335e-011	-3.78472e-011	-3.18273e-011	-3.35824e-011	-8.45805e-011	-2.98441e-011	-8.75084e-011	-3.0991e-011	-3.16168e-011	-8.12759e-011	-3.34545e-011	-3.55367e-011	-3.61313e-011	-2.98193e-011	-3.02727e-011	-1.14592e-010	-2.99746e-011	-3.02823e-011	-5.88309e-011	-3.19467e-011	-1.00705e-010	-7.33703e-011	
FineR120	-4.7899e-011	-4.27979e-011	-4.18731e-011	-3.23411e-011	-3.94029e-011	-3.78472e-011	-3.19289e-011	-3.36183e-011	-8.47463e-011	-2.99506e-011	-8.76066e-011	-3.11614e-011	-3.16836e-011	-8.13803e-011	-3.35824e-011	-3.56639e-011	-3.62582e-011	-2.99098e-011	-3.0338e-011	-1.14642e-010	-3.01053e-011	-3.03474e-011	-5.89553e-011	-3.2011e-011	-1.00827e-010	-7.34936e-011	
FineR130	-4.79709e-011	-4.27677e-011	-4.19378e-011	-3.23411e-011	-3.94424e-011	-3.78472e-011	-3.19349e-011	-3.35824e-011	-8.46477e-011	-2.9885e-011	-8.75084e-011	-3.10968e-011	-3.16168e-011	-8.1319e-011	-3.34545e-011	-3.55367e-011	-3.61947e-011	-2.98193e-011	-3.01708e-011	-1.14557e-010	-2.99746e-011	-3.02212e-011	-5.88309e-011	-3.18444e-011	-1.00669e-010	-7.33323e-011	
FineR140	-4.79354e-011	-4.27619e-011	-4.1803e-011	-3.22799e-011	-3.93419e-011	-3.79516e-011	-3.19324e-011	-3.35824e-011	-8.45865e-011	-2.98193e-011	-8.74472e-011	-3.10323e-011	-3.15155e-011	-8.13277e-011	-3.34545e-011	-3.55429e-011	-3.60922e-011	-2.98193e-011	-3.01708e-011	-1.14557e-010	-2.99746e-011	-3.02212e-011	-5.8861e-011	-3.18444e-011	-1.00669e-010	-7.33136e-011	
FineR150	-4.78634e-011	-4.27619e-011	-4.18677e-011	-3.22736e-011	-3.93419e-011	-3.79516e-011	-3.18677e-011	-3.35601e-011	-8.45865e-011	-2.97829e-011	-8.74472e-011	-3.10983e-011	-3.15155e-011	-8.12901e-011	-3.34602e-011	-3.55429e-011	-3.62012e-011	-2.97172e-011	-3.02363e-011	-1.14496e-010	-2.98724e-011	-3.02212e-011	-5.87988e-011	-3.18444e-011	-1.00722e-010	-7.33136e-011	
FineR160	-4.78634e-011	-4.27619e-011	-4.19071e-011	-3.22799e-011	-3.93419e-011	-3.79199e-011	-3.18677e-011	-3.3624e-011	-8.45865e-011	-2.9885e-011	-8.74472e-011	-3.10968e-011	-3.16168e-011	-8.12576e-011	-3.34159e-011	-3.56066e-011	-3.61973e-011	-2.98193e-011	-3.02361e-011	-1.14557e-010	-2.99788e-011	-3.02862e-011	-5.8792e-011	-3.19087e-011	-1.00713e-010	-7.33752e-011	
FineR170	-4.79354e-011	-4.27318e-011	-4.18767e-011	-3.22799e-011	-3.93419e-011	-3.78506e-011	-3.18981e-011	-3.35214e-011	-8.45865e-011	-2.97829e-011	-8.7386e-011	-3.10983e-011	-3.15155e-011	-8.12287e-011	-3.34186e-011	-3.55429e-011	-3.62012e-011	-2.97172e-011	-3.02771e-011	-1.14496e-010	-2.99789e-011	-3.02212e-011	-5.87988e-011	-3.18444e-011	-1.00679e-010	-7.33136e-011	
FineR180	-4.78634e-011	-4.27318e-011	-4.18677e-011	-3.22799e-011	-3.93419e-011	-3.78506e-011	-3.18677e-011	-3.35601e-011	-8.45865e-011	-2.97829e-011	-8.74905e-011	-3.10983e-011	-3.15155e-011	-8.12576e-011	-3.34575e-011	-3.56066e-011	-3.61338e-011	-2.97829e-011	-3.02115e-011	-1.14557e-010	-3.00156e-011	-3.02862e-011	-5.8792e-011	-3.18444e-011	-1.00669e-010	-7.33136e-011	
FineR190	-4.79354e-011	-4.28326e-011	-4.18423e-011	-3.23473e-011	-3.94424e-011	-3.7887e-011	-3.19006e-011	-3.3624e-011	-8.46477e-011	-2.9885e-011	-8.75517e-011	-3.10968e-011	-3.15823e-011	-8.1319e-011	-3.35601e-011	-3.5603e-011	-3.62607e-011	-2.9885e-011	-3.03422e-011	-1.14617e-010	-3.004e-011	-3.03512e-011	-5.89553e-011	-3.20142e-011	-1.00773e-010	-7.34369e-011	
FineR200	-4.79354e-011	-4.27677e-011	-4.1812e-011	-3.23473e-011	-3.94113e-011	-3.78553e-011	-3.19006e-011	-3.3624e-011	-8.46477e-011	-2.98486e-011	-8.74905e-011	-3.10323e-011	-3.15823e-011	-8.13245e-011	-3.34575e-011	-3.56066e-011	-3.61973e-011	-2.97829e-011	-3.03424e-011	-1.14601e-010	-2.99788e-011	-3.02862e-011	-5.88967e-011	-3.19499e-011	-1.00713e-010	-7.33752e-011	
FineR210	-4.78702e-011	-4.27714e-011	-4.1812e-011	-3.22799e-011	-3.93419e-011	-3.79199e-011	-3.18981e-011	-3.35854e-011	-8.45924e-011	-2.98238e-011	-8.74534e-011	-3.11018e-011	-3.16205e-011	-8.13945e-011	-3.34575e-011	-3.55394e-011	-3.61621e-011	-2.97829e-011	-3.02404e-011	-1.14505e-010	-3.00443e-011	-3.01839e-011	-5.89036e-011	-3.18475e-011	-1.00747e-010	-7.33136e-011	
FineR220	-4.79461e-011	-4.27714e-011	-4.18767e-011	-3.23473e-011	-3.93419e-011	-3.79199e-011	-3.18737e-011	-3.35854e-011	-8.46537e-011	-2.98894e-011	-8.75146e-011	-3.11018e-011	-3.16225e-011	-8.13945e-011	-3.34575e-011	-3.56066e-011	-3.62646e-011	-2.98238e-011	-3.03057e-011	-1.14661e-010	-3.00441e-011	-3.02862e-011	-5.88967e-011	-3.19499e-011	-1.00851e-010	-7.33752e-011	
FineR230	-4.79461e-011	-4.2842e-011	-4.18767e-011	-3.23133e-011	-3.94113e-011	-3.78553e-011	-3.19385e-011	-3.3627e-011	-8.46537e-011	-2.98894e-011	-8.75579e-011	-3.11018e-011	-3.1586e-011	-8.13945e-011	-3.35242e-011	-3.56066e-011	-3.62255e-011	-2.98238e-011	-3.02404e-011	-1.14566e-010	-2.99788e-011	-3.02489e-011	-5.89036e-011	-3.19118e-011	-1.00737e-010	-7.33801e-011	
FineR240	-4.79748e-011	-4.2842e-011	-4.19468e-011	-3.23473e-011	-3.94113e-011	-3.79246e-011	-3.1941e-011	-3.37295e-011	-8.47523e-011	-2.99551e-011	-8.76562e-011	-3.11649e-011	-3.16893e-011	-8.13858e-011	-3.35854e-011	-3.56666e-011	-3.62607e-011	-2.98894e-011	-3.03711e-011	-1.14721e-010	-3.01095e-011	-3.03512e-011	-5.89589e-011	-3.20785e-011	-1.00895e-010	-7.35415e-011	
FineR250	-4.79422e-011	-4.28073e-011	-4.19124e-011	-3.24148e-011	-3.94113e-011	-3.79563e-011	-3.19678e-011	-3.36879e-011	-8.48135e-011	-2.99142e-011	-8.76562e-011	-3.11614e-011	-3.16893e-011	-8.14471e-011	-3.35601e-011	-3.56666e-011	-3.63242e-011	-2.98486e-011	-3.03422e-011	-1.14721e-010	-3.01463e-011	-3.03512e-011	-5.89589e-011	-3.20142e-011	-1.00895e-010	-7.34985e-011	
MinCout:	-2.97172e-011	FineR:	150	FineC:	170

	FineC100	FineC101	FineC102	FineC103	FineC104	FineC105	FineC106	FineC107	FineC108	FineC109	FineC110	FineC111	FineC112	FineC113	FineC114	FineC115	FineC116	FineC117	FineC118	FineC119	FineC120	
FineR10	-9.06527e-011	-3.22054e-011	-3.22054e-011	-3.05791e-011	-9.03808e-011	-3.15823e-011	-3.16491e-011	-3.11614e-011	-3.16491e-011	-3.11614e-011	-3.11614e-011	-7.00347e-011	-9.01784e-011	-3.15803e-011	-3.15823e-011	-3.10968e-011	-3.15823e-011	-3.11251e-011	-3.1059e-011	-6.99729e-011	-3.18309e-011	
FineR11	-9.02587e-011	-3.21019e-011	-3.21019e-011	-3.04493e-011	-9.03198e-011	-3.15823e-011	-3.15823e-011	-3.11614e-011	-3.15823e-011	-3.11614e-011	-3.11614e-011	-7.00347e-011	-9.02764e-011	-3.15823e-011	-3.15823e-011	-3.11614e-011	-3.16491e-011	-3.11614e-011	-3.11614e-011	-6.99964e-011	-3.18981e-011	
FineR12	-9.03198e-011	-3.20371e-011	-3.20371e-011	-3.05151e-011	-9.02828e-011	-3.16205e-011	-3.16225e-011	-3.10968e-011	-3.16225e-011	-3.10968e-011	-3.11003e-011	-6.99347e-011	-9.0292e-011	-3.15803e-011	-3.15155e-011	-3.1059e-011	-3.16205e-011	-3.11664e-011	-3.11251e-011	-7.00042e-011	-3.18309e-011	
FineR13	-9.02217e-011	-3.20349e-011	-3.20349e-011	-3.04777e-011	-9.02217e-011	-3.16205e-011	-3.16873e-011	-3.11251e-011	-3.16225e-011	-3.10968e-011	-3.1059e-011	-6.99729e-011	-9.0292e-011	-3.16205e-011	-3.1586e-011	-3.1059e-011	-3.16225e-011	-3.11629e-011	-3.1059e-011	-6.99347e-011	-3.18309e-011	
FineR14	-9.02587e-011	-3.20349e-011	-3.20349e-011	-3.05151e-011	-9.0292e-011	-3.15803e-011	-3.15823e-011	-3.10968e-011	-3.16225e-011	-3.10968e-011	-3.1059e-011	-7.00042e-011	-9.0329e-011	-3.15803e-011	-3.15155e-011	-3.10968e-011	-3.16471e-011	-3.1059e-011	-3.1059e-011	-6.99729e-011	-3.18309e-011	
FineR15	-9.02828e-011	-3.20349e-011	-3.21019e-011	-3.058e-011	-9.03808e-011	-3.16225e-011	-3.16225e-011	-3.12027e-011	-3.16491e-011	-3.12027e-011	-3.11614e-011	-7.00965e-011	-9.03198e-011	-3.16225e-011	-3.15823e-011	-3.11614e-011	-3.16491e-011	-3.12673e-011	-3.11614e-011	-7.00965e-011	-3.18334e-011	
FineR16	-9.03808e-011	-3.20371e-011	-3.20713e-011	-3.05151e-011	-9.02764e-011	-3.16225e-011	-3.16225e-011	-3.1059e-011	-3.15823e-011	-3.10968e-011	-3.11381e-011	-7.00424e-011	-9.01784e-011	-3.15155e-011	-3.16225e-011	-3.1059e-011	-3.15823e-011	-3.10968e-011	-3.10968e-011	-6.99729e-011	-3.18309e-011	
FineR17	-9.02587e-011	-3.20349e-011	-3.19701e-011	-3.04493e-011	-9.03198e-011	-3.15823e-011	-3.15823e-011	-3.11614e-011	-3.15823e-011	-3.11614e-011	-3.10968e-011	-6.99729e-011	-9.01784e-011	-3.15803e-011	-3.15823e-011	-3.1059e-011	-3.15823e-011	-3.11614e-011	-3.10968e-011	-7.00347e-011	-3.18309e-011	
FineR18	-9.02154e-011	-3.20349e-011	-3.21019e-011	-3.04493e-011	-9.02154e-011	-3.15155e-011	-3.15823e-011	-3.11003e-011	-3.15823e-011	-3.10968e-011	-3.1059e-011	-6.99347e-011	-9.02154e-011	-3.15155e-011	-3.15823e-011	-3.10968e-011	-3.15823e-011	-3.10968e-011	-3.11003e-011	-6.99729e-011	-3.18309e-011	
FineR19	-9.02154e-011	-3.21019e-011	-3.21019e-011	-3.05142e-011	-9.02764e-011	-3.15823e-011	-3.16168e-011	-3.11614e-011	-3.15823e-011	-3.11614e-011	-3.11614e-011	-7.00347e-011	-9.02154e-011	-3.16225e-011	-3.15823e-011	-3.11614e-011	-3.16491e-011	-3.11614e-011	-3.11614e-011	-7.00347e-011	-3.18981e-011	
FineR20	-9.02764e-011	-3.21019e-011	-3.21019e-011	-3.05151e-011	-9.02764e-011	-3.15823e-011	-3.15823e-011	-3.10968e-011	-3.15823e-011	-3.10968e-011	-3.10968e-011	-7.00424e-011	-9.01543e-011	-3.15155e-011	-3.15155e-011	-3.10968e-011	-3.15823e-011	-3.10968e-011	-3.10968e-011	-6.99729e-011	-3.18309e-011	
FineR21	-9.02154e-011	-3.20349e-011	-3.20349e-011	-3.04493e-011	-9.02154e-011	-3.15155e-011	-3.15823e-011	-3.10968e-011	-3.15823e-011	-3.10968e-011	-3.10968e-011	-6.99729e-011	-9.01543e-011	-3.15155e-011	-3.15155e-011	-3.10968e-011	-3.15823e-011	-3.10968e-011	-3.10968e-011	-7.00424e-011	-3.18309e-011	
FineR22	-9.02154e-011	-3.20691e-011	-3.20349e-011	-3.04493e-011	-9.02154e-011	-3.15155e-011	-3.15155e-011	-3.10323e-011	-3.15823e-011	-3.1059e-011	-3.11251e-011	-7.00424e-011	-9.01174e-011	-3.15155e-011	-3.15155e-011	-3.10605e-011	-3.15155e-011	-3.1059e-011	-3.10968e-011	-6.99729e-011	-3.17636e-011	
FineR23	-9.02154e-011	-3.20349e-011	-3.21019e-011	-3.04493e-011	-9.03198e-011	-3.15823e-011	-3.15823e-011	-3.11614e-011	-3.15823e-011	-3.11614e-011	-3.11614e-011	-7.00347e-011	-9.02217e-011	-3.15823e-011	-3.15823e-011	-3.11614e-011	-3.16893e-011	-3.11649e-011	-3.12027e-011	-7.00582e-011	-3.18981e-011	
FineR24	-9.02828e-011	-3.20371e-011	-3.21019e-011	-3.05151e-011	-9.02828e-011	-3.15211e-011	-3.16225e-011	-3.11003e-011	-3.16225e-011	-3.11649e-011	-3.11003e-011	-6.99964e-011	-9.02217e-011	-3.15557e-011	-3.15557e-011	-3.11003e-011	-3.16225e-011	-3.11003e-011	-3.11003e-011	-7.0047e-011	-3.17966e-011	
FineR25	-9.02217e-011	-3.20349e-011	-3.20371e-011	-3.04493e-011	-9.02828e-011	-3.15557e-011	-3.16225e-011	-3.11003e-011	-3.16225e-011	-3.11003e-011	-3.11003e-011	-6.99775e-011	-9.0292e-011	-3.15211e-011	-3.1588e-011	-3.11003e-011	-3.1588e-011	-3.11664e-011	-3.11003e-011	-7.01088e-011	-3.17966e-011	
FineR26	-9.02217e-011	-3.2075e-011	-3.2075e-011	-3.05189e-011	-9.0292e-011	-3.15211e-011	-3.15211e-011	-3.11003e-011	-3.1588e-011	-3.11664e-011	-3.11664e-011	-7.0047e-011	-9.02309e-011	-3.1586e-011	-3.1586e-011	-3.11664e-011	-3.15211e-011	-3.11003e-011	-3.11664e-011	-7.0047e-011	-3.17293e-011	
FineR27	-9.02217e-011	-3.2075e-011	-3.2142e-011	-3.05189e-011	-9.02217e-011	-3.1586e-011	-3.16225e-011	-3.11003e-011	-3.16225e-011	-3.11649e-011	-3.11649e-011	-7.00393e-011	-9.02217e-011	-3.15211e-011	-3.16225e-011	-3.11649e-011	-3.1588e-011	-3.11649e-011	-3.11664e-011	-6.99964e-011	-3.18369e-011	
FineR28	-9.02828e-011	-3.20772e-011	-3.20772e-011	-3.05189e-011	-9.03261e-011	-3.16225e-011	-3.1588e-011	-3.11649e-011	-3.16893e-011	-3.11649e-011	-3.11649e-011	-7.01088e-011	-9.02828e-011	-3.1588e-011	-3.1588e-011	-3.11649e-011	-3.16548e-011	-3.11649e-011	-3.11649e-011	-7.00393e-011	-3.18712e-011	
FineR29	-9.02828e-011	-3.2142e-011	-3.2142e-011	-3.0453e-011	-9.03261e-011	-3.1588e-011	-3.1588e-011	-3.11649e-011	-3.1588e-011	-3.1231e-011	-3.11649e-011	-7.01088e-011	-9.03353e-011	-3.1588e-011	-3.1588e-011	-3.11664e-011	-3.1588e-011	-3.11649e-011	-3.11649e-011	-7.00393e-011	-3.19385e-011	
FineR30	-9.03261e-011	-3.20772e-011	-3.2043e-011	-3.05179e-011	-9.03261e-011	-3.1588e-011	-3.16548e-011	-3.11649e-011	-3.16548e-011	-3.12295e-011	-3.11649e-011	-7.01011e-011	-9.03261e-011	-3.1588e-011	-3.16548e-011	-3.11649e-011	-3.16893e-011	-3.12295e-011	-3.11649e-011	-7.01011e-011	-3.19385e-011	
MinCout:	-3.04493e-011	FineR:	11	FineC:	103

