	CoarseC0	CoarseC10	CoarseC20	CoarseC30	CoarseC40	CoarseC50	CoarseC60	CoarseC70	CoarseC80	CoarseC90	CoarseC100	CoarseC110	CoarseC120	CoarseC130	CoarseC140	CoarseC150	CoarseC160	CoarseC170	CoarseC180	CoarseC190	CoarseC200	CoarseC210	CoarseC220	CoarseC230	CoarseC240	CoarseC250	
CoarseR0	3.46947e-012	3.37425e-012	3.35938e-012	3.40961e-012	3.47818e-012	4.523e-012	5.08488e-012	5.16208e-012	4.86618e-012	3.47612e-012	1.82943e-012	2.24951e-013	-1.23575e-012	-2.54982e-012	-3.75638e-012	-4.82426e-012	-5.90131e-012	-6.88126e-012	-7.6374e-012	-8.48547e-012	-9.23118e-012	-9.90922e-012	-1.056e-011	-1.11002e-011	-1.16543e-011	-1.21347e-011	
CoarseR10	4.98187e-012	5.3099e-012	5.57968e-012	5.93521e-012	7.40818e-012	8.26929e-012	8.29189e-012	7.55628e-012	5.54909e-012	3.82527e-012	2.14087e-012	6.28592e-013	-6.80002e-013	-1.95824e-012	-3.03316e-012	-4.12403e-012	-5.01413e-012	-5.87563e-012	-6.75199e-012	-7.42848e-012	-8.15929e-012	-8.81791e-012	-9.35831e-012	-9.90902e-012	-1.04265e-011	-1.08252e-011	
CoarseR20	6.63331e-012	7.24375e-012	7.88111e-012	9.66383e-012	1.08578e-011	1.09205e-011	9.77287e-012	7.74669e-012	5.88442e-012	4.19467e-012	2.68062e-012	1.17957e-012	-1.10795e-013	-1.18703e-012	-2.30776e-012	-3.26648e-012	-4.27711e-012	-5.03496e-012	-5.80366e-012	-6.49329e-012	-7.1924e-012	-7.76937e-012	-8.26631e-012	-8.85919e-012	-9.37084e-012	-9.75766e-012	
CoarseR30	8.32502e-012	9.19672e-012	1.1332e-011	1.29839e-011	1.35233e-011	1.22231e-011	1.00082e-011	8.11906e-012	6.35917e-012	4.63645e-012	3.2373e-012	1.90551e-012	6.16454e-013	-5.41082e-013	-1.56223e-012	-2.49406e-012	-3.39264e-012	-4.11535e-012	-4.93699e-012	-5.72081e-012	-6.32743e-012	-6.8969e-012	-7.336e-012	-7.8284e-012	-8.32581e-012	-8.78292e-012	
CoarseR40	1.01592e-011	1.19797e-011	1.44791e-011	1.5582e-011	1.46092e-011	1.25005e-011	1.03581e-011	8.42961e-012	6.66575e-012	5.21473e-012	3.73042e-012	2.49783e-012	1.31844e-012	2.77518e-013	-8.06484e-013	-1.65856e-012	-2.5123e-012	-3.23199e-012	-3.96133e-012	-4.59848e-012	-5.14689e-012	-5.74872e-012	-6.21426e-012	-6.73185e-012	-7.20698e-012	-7.64065e-012	
CoarseR50	1.18584e-011	1.51869e-011	1.71858e-011	1.72154e-011	1.50269e-011	1.2847e-011	1.08344e-011	8.91108e-012	7.33663e-012	5.7993e-012	4.43606e-012	3.17696e-012	2.02985e-012	8.85854e-013	-1.09308e-013	-9.10968e-013	-1.67019e-012	-2.43045e-012	-3.14162e-012	-3.75955e-012	-4.38592e-012	-4.87106e-012	-5.40942e-012	-5.8038e-012	-6.25375e-012	-6.70662e-012	
CoarseR60	1.43211e-011	1.78798e-011	1.9227e-011	1.7573e-011	1.52209e-011	1.31734e-011	1.12707e-011	9.51275e-012	7.86618e-012	6.44242e-012	5.06694e-012	3.90033e-012	2.79882e-012	1.8495e-012	8.07899e-013	-3.21353e-014	-8.20229e-013	-1.56799e-012	-2.26128e-012	-2.81208e-012	-3.41474e-012	-3.92173e-012	-4.48011e-012	-4.94257e-012	-5.30819e-012	-5.77404e-012	
CoarseR70	1.71251e-011	2.02451e-011	2.03063e-011	1.78488e-011	1.56529e-011	1.36224e-011	1.16889e-011	1.01612e-011	8.48532e-012	7.01884e-012	5.82529e-012	4.60609e-012	3.56154e-012	2.6735e-012	1.69319e-012	8.66599e-013	-7.76967e-015	-7.28448e-013	-1.29627e-012	-1.86726e-012	-2.49058e-012	-3.0149e-012	-3.48882e-012	-3.97298e-012	-4.29643e-012	-4.72614e-012	
CoarseR80	1.97002e-011	2.21568e-011	2.06596e-011	1.82616e-011	1.60309e-011	1.40972e-011	1.22934e-011	1.06811e-011	9.0609e-012	7.67309e-012	6.55112e-012	5.34363e-012	4.24654e-012	3.38251e-012	2.4741e-012	1.66721e-012	8.22018e-013	1.72533e-013	-4.69397e-013	-1.05853e-012	-1.60307e-012	-2.08594e-012	-2.52394e-012	-3.01397e-012	-3.40141e-012	-3.79211e-012	
CoarseR90	2.18106e-011	2.33845e-011	2.10497e-011	1.86851e-011	1.6646e-011	1.46339e-011	1.27596e-011	1.12092e-011	9.7295e-012	8.41539e-012	7.13057e-012	6.05185e-012	5.08518e-012	4.12067e-012	3.18492e-012	2.35373e-012	1.58135e-012	9.71409e-013	3.11886e-013	-2.44822e-013	-7.45349e-013	-1.23888e-012	-1.74508e-012	-2.09005e-012	-2.4946e-012	-2.89248e-012	
CoarseR100	2.36177e-011	2.37644e-011	2.13727e-011	1.91391e-011	1.71562e-011	1.52475e-011	1.34192e-011	1.17709e-011	1.03334e-011	9.08436e-012	7.88592e-012	6.80604e-012	5.81117e-012	4.94267e-012	4.03058e-012	3.22515e-012	2.54137e-012	1.80855e-012	1.28961e-012	6.7309e-013	1.02598e-013	-4.22636e-013	-9.26517e-013	-1.38586e-012	-1.67996e-012	-2.03549e-012	
CoarseR110	2.5171e-011	2.41647e-011	2.18673e-011	1.9596e-011	1.77245e-011	1.57109e-011	1.40032e-011	1.25704e-011	1.10449e-011	9.54381e-012	8.4677e-012	7.5147e-012	6.55808e-012	5.60598e-012	4.78279e-012	4.00704e-012	3.26225e-012	2.6097e-012	1.97096e-012	1.39296e-012	8.72956e-013	4.60054e-013	-2.64044e-015	-4.6772e-013	-8.38271e-013	-1.19814e-012	
CoarseR120	2.6407e-011	2.46175e-011	2.23095e-011	2.01761e-011	1.81473e-011	1.63705e-011	1.4547e-011	1.31177e-011	1.16438e-011	1.03067e-011	9.1865e-012	8.07472e-012	7.14385e-012	6.34592e-012	5.47208e-012	4.807e-012	3.98808e-012	3.40253e-012	2.69112e-012	2.19803e-012	1.67172e-012	1.17647e-012	7.70789e-013	2.86743e-013	-7.45229e-014	-3.89797e-013	
CoarseR130	2.72644e-011	2.49712e-011	2.26659e-011	2.05843e-011	1.85286e-011	1.67926e-011	1.50824e-011	1.3577e-011	1.22274e-011	1.08645e-011	9.78717e-012	8.68014e-012	7.81897e-012	6.94321e-012	6.0922e-012	5.37906e-012	4.6597e-012	4.11384e-012	3.50402e-012	2.91098e-012	2.36293e-012	1.9406e-012	1.51647e-012	1.20078e-012	7.73569e-013	4.08373e-013	
CoarseR140	2.78155e-011	2.53278e-011	2.31808e-011	2.11117e-011	1.91323e-011	1.7339e-011	1.56596e-011	1.42763e-011	1.28098e-011	1.16003e-011	1.05043e-011	9.37997e-012	8.50621e-012	7.7073e-012	6.82541e-012	6.03178e-012	5.30452e-012	4.73357e-012	4.11712e-012	3.67516e-012	3.12289e-012	2.69745e-012	2.31709e-012	1.889e-012	1.45968e-012	1.02892e-012	
CoarseR150	2.82093e-011	2.58007e-011	2.36344e-011	2.14439e-011	1.9635e-011	1.79722e-011	1.62901e-011	1.48381e-011	1.34983e-011	1.22039e-011	1.10911e-011	1.01048e-011	9.15702e-012	8.25967e-012	7.47798e-012	6.83199e-012	6.05789e-012	5.43635e-012	4.83591e-012	4.26043e-012	3.7694e-012	3.27706e-012	2.91356e-012	2.52974e-012	2.08064e-012	1.76012e-012	
CoarseR160	2.87163e-011	2.62435e-011	2.40632e-011	2.20165e-011	2.01305e-011	1.84345e-011	1.68503e-011	1.54468e-011	1.40739e-011	1.27338e-011	1.16519e-011	1.07029e-011	9.80781e-012	8.94556e-012	8.09111e-012	7.33005e-012	6.57124e-012	6.03487e-012	5.47698e-012	4.91914e-012	4.42592e-012	3.93218e-012	3.52814e-012	3.14375e-012	2.77801e-012	2.41123e-012	
CoarseR170	2.90717e-011	2.66895e-011	2.44252e-011	2.25627e-011	2.06457e-011	1.88837e-011	1.73855e-011	1.59033e-011	1.46689e-011	1.33447e-011	1.22228e-011	1.1362e-011	1.03493e-011	9.5654e-012	8.70493e-012	8.05028e-012	7.15495e-012	6.52766e-012	6.01177e-012	5.43013e-012	4.93677e-012	4.48686e-012	4.10268e-012	3.60704e-012	3.28665e-012	2.96557e-012	
CoarseR180	2.94256e-011	2.70266e-011	2.49876e-011	2.30174e-011	2.1077e-011	1.93309e-011	1.78069e-011	1.63089e-011	1.50312e-011	1.3918e-011	1.27885e-011	1.18257e-011	1.08778e-011	1.0006e-011	9.29288e-012	8.56808e-012	7.80385e-012	7.10884e-012	6.59207e-012	5.94171e-012	5.44793e-012	4.99789e-012	4.5476e-012	4.16252e-012	3.77689e-012	3.45673e-012	
CoarseR190	2.97354e-011	2.74485e-011	2.53722e-011	2.34112e-011	2.15951e-011	1.97902e-011	1.82948e-011	1.68247e-011	1.55667e-011	1.43439e-011	1.31959e-011	1.23805e-011	1.1332e-011	1.05673e-011	9.70086e-012	9.01478e-012	8.31784e-012	7.63891e-012	7.07966e-012	6.56288e-012	5.97972e-012	5.48687e-012	5.03643e-012	4.65222e-012	4.22357e-012	3.97085e-012	
CoarseR200	3.00573e-011	2.7765e-011	2.58061e-011	2.38961e-011	2.19128e-011	2.03515e-011	1.8768e-011	1.72873e-011	1.59507e-011	1.47593e-011	1.36873e-011	1.27898e-011	1.1848e-011	1.10123e-011	1.01177e-011	9.45871e-012	8.77664e-012	8.14904e-012	7.56485e-012	6.98071e-012	6.39829e-012	5.97398e-012	5.52445e-012	5.07471e-012	4.69127e-012	4.30655e-012	
CoarseR210	3.03735e-011	2.80518e-011	2.61082e-011	2.4215e-011	2.23257e-011	2.06806e-011	1.90166e-011	1.7745e-011	1.63344e-011	1.51e-011	1.4132e-011	1.31639e-011	1.23291e-011	1.13567e-011	1.05577e-011	9.80334e-012	9.18972e-012	8.56379e-012	8.02158e-012	7.4387e-012	6.94944e-012	6.36744e-012	5.91952e-012	5.49548e-012	5.1802e-012	4.79686e-012	
CoarseR220	3.07125e-011	2.84682e-011	2.64623e-011	2.45139e-011	2.26154e-011	2.09981e-011	1.94003e-011	1.80863e-011	1.67427e-011	1.56128e-011	1.45058e-011	1.35042e-011	1.25903e-011	1.17942e-011	1.08988e-011	1.02136e-011	9.55957e-012	8.94797e-012	8.32531e-012	7.78548e-012	7.27198e-012	6.7839e-012	6.33752e-012	5.89091e-012	5.44317e-012	5.08675e-012	
CoarseR230	3.09816e-011	2.87162e-011	2.67247e-011	2.47991e-011	2.30398e-011	2.13024e-011	1.97764e-011	1.84189e-011	1.70761e-011	1.58705e-011	1.47618e-011	1.39389e-011	1.2818e-011	1.20898e-011	1.12361e-011	1.05524e-011	9.87185e-012	9.22241e-012	8.68182e-012	8.02139e-012	7.61814e-012	7.06523e-012	6.7283e-012	6.17502e-012	5.83778e-012	5.45826e-012	
CoarseR240	3.12032e-011	2.90202e-011	2.70104e-011	2.49654e-011	2.32346e-011	2.16404e-011	2.00344e-011	1.8641e-011	1.7261e-011	1.61626e-011	1.50914e-011	1.42016e-011	1.32204e-011	1.23568e-011	1.15993e-011	1.09167e-011	1.017e-011	9.56151e-012	8.91581e-012	8.44542e-012	7.86894e-012	7.34555e-012	6.94321e-012	6.54103e-012	6.12329e-012	5.74557e-012	
CoarseR250	3.14718e-011	2.92745e-011	2.72487e-011	2.53085e-011	2.34955e-011	2.18958e-011	2.02533e-011	1.89677e-011	1.75895e-011	1.63508e-011	1.54203e-011	1.44931e-011	1.34146e-011	1.26215e-011	1.18366e-011	1.1049e-011	1.04797e-011	9.76725e-012	9.19107e-012	8.61472e-012	8.10727e-012	7.59893e-012	7.15852e-012	6.71783e-012	6.34246e-012	6.03307e-012	
MinCout:	-2.64044e-015	CoarseR:	110	CoarseC:	220

	CoarseC240	CoarseC241	CoarseC242	CoarseC243	CoarseC244	CoarseC245	CoarseC246	CoarseC247	CoarseC248	CoarseC249	CoarseC250	CoarseC251	CoarseC252	CoarseC253	CoarseC254	CoarseC255	CoarseC255	CoarseC255	CoarseC255	CoarseC255	CoarseC255	
CoarseR150	2.27408e-012	2.21087e-012	2.16572e-012	2.16671e-012	2.10351e-012	2.10427e-012	2.0593e-012	1.9961e-012	2.01551e-012	1.95183e-012	1.88864e-012	1.88938e-012	1.84431e-012	1.79895e-012	1.75382e-012	1.73647e-012	1.75497e-012	1.8011e-012	1.8011e-012	1.75497e-012	1.8011e-012	
CoarseR151	2.3344e-012	2.27112e-012	2.20734e-012	2.22701e-012	2.16374e-012	2.16449e-012	2.16599e-012	2.0563e-012	2.05705e-012	2.01208e-012	1.94882e-012	2.01427e-012	1.90453e-012	1.90573e-012	1.9067e-012	1.86137e-012	1.86137e-012	1.86137e-012	1.86137e-012	1.86183e-012	1.86137e-012	
CoarseR152	2.33e-012	2.3315e-012	2.33225e-012	2.28744e-012	2.22409e-012	2.22484e-012	2.1615e-012	2.1812e-012	2.11737e-012	2.07246e-012	2.00912e-012	2.00985e-012	2.02941e-012	2.01205e-012	1.98556e-012	1.85701e-012	1.92177e-012	1.92177e-012	1.92177e-012	1.92177e-012	1.92177e-012	
CoarseR153	2.43672e-012	2.4567e-012	2.39276e-012	2.32934e-012	2.34924e-012	2.28532e-012	2.24051e-012	2.2229e-012	2.17783e-012	2.06811e-012	2.11541e-012	2.07028e-012	1.96053e-012	2.07246e-012	1.96269e-012	1.96388e-012	1.98229e-012	2.02822e-012	1.98229e-012	1.98229e-012	1.98229e-012	
CoarseR154	2.56208e-012	2.56304e-012	2.45339e-012	2.34372e-012	2.39088e-012	2.34593e-012	2.23623e-012	2.28342e-012	2.23841e-012	2.23914e-012	2.2406e-012	2.17664e-012	2.13157e-012	2.11394e-012	2.13373e-012	2.02394e-012	2.08882e-012	2.08882e-012	2.08882e-012	2.08882e-012	2.08882e-012	
CoarseR155	2.55748e-012	2.49393e-012	2.51415e-012	2.45007e-012	2.45156e-012	2.40666e-012	2.34312e-012	2.34407e-012	2.29913e-012	2.23508e-012	2.19033e-012	2.23727e-012	2.12751e-012	2.19319e-012	2.12968e-012	2.08483e-012	2.08483e-012	2.19534e-012	2.08483e-012	2.13063e-012	2.13063e-012	
CoarseR156	2.61853e-012	2.61981e-012	2.51015e-012	2.5111e-012	2.44749e-012	2.44823e-012	2.40361e-012	2.40434e-012	2.34075e-012	2.29585e-012	2.2968e-012	2.23321e-012	2.29897e-012	2.1892e-012	2.18992e-012	2.19135e-012	2.19135e-012	2.19135e-012	2.21013e-012	2.19135e-012	2.19135e-012	
CoarseR157	2.67948e-012	2.56983e-012	2.55159e-012	2.44192e-012	2.50783e-012	2.44415e-012	2.39939e-012	2.40034e-012	2.40158e-012	2.33741e-012	2.29279e-012	2.29402e-012	2.24886e-012	2.25006e-012	2.25099e-012	2.2522e-012	2.2711e-012	2.2711e-012	2.31725e-012	2.2711e-012	2.20626e-012	
CoarseR158	2.65563e-012	2.65715e-012	2.5475e-012	2.54825e-012	2.54975e-012	2.50507e-012	2.50602e-012	2.4423e-012	2.44305e-012	2.39852e-012	2.35374e-012	2.35467e-012	2.30985e-012	2.35683e-012	2.31197e-012	2.26729e-012	2.26729e-012	2.26729e-012	2.26729e-012	2.26729e-012	2.26729e-012	
CoarseR159	2.65153e-012	2.71815e-012	2.65381e-012	2.59002e-012	2.59101e-012	2.54641e-012	2.502e-012	2.50274e-012	2.45828e-012	2.50496e-012	2.46046e-012	2.35072e-012	2.41665e-012	2.30688e-012	2.30809e-012	2.30901e-012	2.30901e-012	2.37418e-012	2.37418e-012	2.37418e-012	2.37418e-012	
CoarseR160	2.75801e-012	2.64839e-012	2.76032e-012	2.65067e-012	2.54101e-012	2.60711e-012	2.54327e-012	2.56403e-012	2.49966e-012	2.50092e-012	2.47589e-012	2.39214e-012	2.47802e-012	2.39434e-012	2.4342e-012	2.23985e-012	2.43559e-012	2.38963e-012	2.38963e-012	2.43509e-012	2.43559e-012	
CoarseR161	2.86448e-012	2.8201e-012	2.77588e-012	2.75718e-012	2.64753e-012	2.60306e-012	2.60456e-012	2.60531e-012	2.56099e-012	2.56173e-012	2.51736e-012	2.51829e-012	2.53899e-012	2.45513e-012	2.54111e-012	2.41193e-012	2.43133e-012	2.43133e-012	2.43133e-012	2.43133e-012	2.49661e-012	
CoarseR162	2.81471e-012	2.88152e-012	2.77189e-012	2.70736e-012	2.77414e-012	2.70964e-012	2.59997e-012	2.64667e-012	2.60222e-012	2.60318e-012	2.6241e-012	2.57977e-012	2.53522e-012	2.53612e-012	2.53734e-012	2.53823e-012	2.4924e-012	2.53823e-012	2.49291e-012	2.53823e-012	2.53823e-012	
CoarseR163	2.9212e-012	2.87714e-012	2.81313e-012	2.81389e-012	2.76979e-012	2.75087e-012	2.77204e-012	2.70805e-012	2.59783e-012	2.68438e-012	2.5549e-012	2.70626e-012	2.55712e-012	2.70839e-012	2.44811e-012	2.55427e-012	2.59952e-012	2.59952e-012	2.66472e-012	2.55427e-012	2.59952e-012	
CoarseR164	2.98215e-012	2.93816e-012	2.87408e-012	2.87504e-012	2.76542e-012	2.83229e-012	2.76768e-012	2.70308e-012	2.76994e-012	2.7258e-012	2.74694e-012	2.70219e-012	2.63795e-012	2.70431e-012	2.57481e-012	2.66125e-012	2.66125e-012	2.66125e-012	2.66125e-012	2.66125e-012	2.66125e-012	
CoarseR165	2.99852e-012	3.04491e-012	2.93533e-012	2.87065e-012	2.87217e-012	2.82798e-012	2.82892e-012	2.83022e-012	2.72057e-012	2.78708e-012	2.74278e-012	2.80921e-012	2.74495e-012	2.72065e-012	2.61604e-012	2.65724e-012	2.65724e-012	2.65724e-012	2.65724e-012	2.65724e-012	2.65724e-012	
CoarseR166	3.10529e-012	2.99573e-012	3.04207e-012	3.04284e-012	2.99891e-012	2.88932e-012	2.87006e-012	2.8261e-012	2.89247e-012	2.84827e-012	2.86979e-012	2.78505e-012	2.82639e-012	2.6761e-012	2.82848e-012	2.71877e-012	2.76435e-012	2.76435e-012	2.71877e-012	2.76435e-012	2.76435e-012	
CoarseR167	3.1667e-012	3.05716e-012	2.99294e-012	2.99387e-012	2.94982e-012	2.99612e-012	2.88653e-012	2.95296e-012	2.909e-012	2.88969e-012	2.91118e-012	2.84645e-012	2.86787e-012	2.80314e-012	2.8245e-012	2.8259e-012	2.8259e-012	2.8259e-012	2.76031e-012	2.8259e-012	2.8259e-012	
CoarseR168	3.2282e-012	3.16394e-012	3.0544e-012	3.05532e-012	3.05665e-012	2.99182e-012	2.94799e-012	2.94929e-012	2.97056e-012	2.8406e-012	2.97288e-012	2.8428e-012	2.92962e-012	2.73388e-012	2.86611e-012	2.82191e-012	2.82191e-012	2.88753e-012	2.88753e-012	2.88753e-012	2.88753e-012	
CoarseR169	3.1589e-012	3.15983e-012	3.16117e-012	3.05164e-012	3.05256e-012	3.05388e-012	3.07587e-012	3.01101e-012	3.07749e-012	2.9679e-012	2.92402e-012	2.92473e-012	2.94649e-012	2.92686e-012	2.88289e-012	2.92914e-012	2.88375e-012	2.88375e-012	2.92914e-012	2.88375e-012	2.94925e-012	
CoarseR170	3.26561e-012	3.22199e-012	3.11249e-012	3.22424e-012	3.11472e-012	3.11563e-012	3.13754e-012	3.07263e-012	3.02886e-012	3.07482e-012	3.09676e-012	2.96612e-012	3.0536e-012	2.92299e-012	2.94467e-012	2.99083e-012	2.99083e-012	2.94605e-012	2.94605e-012	2.94605e-012	2.99083e-012	
MinCout:	1.73647e-012	CoarseR:	150	CoarseC:	255

	FineC0	FineC10	FineC20	FineC30	FineC40	FineC50	FineC60	FineC70	FineC80	FineC90	FineC100	FineC110	FineC120	FineC130	FineC140	FineC150	FineC160	FineC170	FineC180	FineC190	FineC200	FineC210	FineC220	FineC230	FineC240	FineC250	
FineR0	2.57288e-012	2.0978e-012	1.90343e-012	1.6894e-012	1.47344e-012	1.43115e-012	1.2768e-012	1.18567e-012	1.12435e-012	1.0796e-012	9.86929e-013	9.88427e-013	9.42747e-013	8.32575e-013	7.861e-013	7.87148e-013	7.87872e-013	7.4132e-013	7.58453e-013	7.59146e-013	7.59492e-013	7.12514e-013	7.12851e-013	7.6088e-013	7.13864e-013	6.50115e-013	
FineR10	2.90642e-012	2.54295e-012	2.22023e-012	2.0243e-012	1.93707e-012	1.78411e-012	1.67713e-012	1.63345e-012	1.52479e-012	1.4805e-012	1.41836e-012	1.37323e-012	1.31034e-012	1.32887e-012	1.2832e-012	1.28401e-012	1.22065e-012	1.17461e-012	1.12816e-012	1.17579e-012	1.19377e-012	1.12998e-012	1.14764e-012	1.14802e-012	1.14839e-012	1.14877e-012	
FineR20	3.11121e-012	2.74848e-012	2.49085e-012	2.27734e-012	2.07979e-012	1.99204e-012	1.88499e-012	1.79509e-012	1.75157e-012	1.68941e-012	1.59813e-012	1.53545e-012	1.49023e-012	1.44482e-012	1.33482e-012	1.40059e-012	1.33672e-012	1.29091e-012	1.35586e-012	1.35666e-012	1.3104e-012	1.31079e-012	1.26451e-012	1.26489e-012	1.31235e-012	1.26565e-012	
FineR30	3.23117e-012	2.8034e-012	2.54661e-012	2.33324e-012	2.18255e-012	2.09459e-012	1.92335e-012	1.83395e-012	1.79014e-012	1.74625e-012	1.74834e-012	1.59249e-012	1.4831e-012	1.54896e-012	1.50365e-012	1.50448e-012	1.44099e-012	1.39492e-012	1.46033e-012	1.41423e-012	1.41503e-012	1.41543e-012	1.41583e-012	1.36967e-012	1.37006e-012	1.30584e-012	
FineR40	3.22524e-012	2.90861e-012	2.60575e-012	2.43833e-012	2.22319e-012	2.13598e-012	1.98286e-012	1.8754e-012	1.89653e-012	1.80606e-012	1.74381e-012	1.63455e-012	1.65401e-012	1.59098e-012	1.5455e-012	1.50024e-012	1.50108e-012	1.5197e-012	1.45617e-012	1.52135e-012	1.4574e-012	1.41134e-012	1.47612e-012	1.41214e-012	1.43043e-012	1.43083e-012	
FineR50	3.28586e-012	2.96928e-012	2.71226e-012	2.49915e-012	2.28409e-012	2.17857e-012	2.08996e-012	1.98308e-012	1.89335e-012	1.84936e-012	1.74046e-012	1.7421e-012	1.69748e-012	1.65235e-012	1.60693e-012	1.4971e-012	1.56257e-012	1.54539e-012	1.45309e-012	1.4539e-012	1.51895e-012	1.40832e-012	1.45554e-012	1.40952e-012	1.36308e-012	1.36347e-012	
FineR60	3.21803e-012	2.90162e-012	2.69099e-012	2.43173e-012	2.28142e-012	2.19439e-012	2.08791e-012	2.04493e-012	1.937e-012	1.89309e-012	1.73811e-012	1.73974e-012	1.69516e-012	1.65008e-012	1.6514e-012	1.58789e-012	1.58876e-012	1.56122e-012	1.54401e-012	1.49809e-012	1.45216e-012	1.4062e-012	1.45338e-012	1.45379e-012	1.51861e-012	1.47261e-012	
FineR70	3.26157e-012	2.96403e-012	2.75342e-012	2.49422e-012	2.34394e-012	2.17381e-012	2.13182e-012	1.97854e-012	1.93501e-012	1.89139e-012	1.84697e-012	1.73811e-012	1.69329e-012	1.64825e-012	1.69605e-012	1.6507e-012	1.65157e-012	1.54134e-012	1.60685e-012	1.56097e-012	1.51506e-012	1.56223e-012	1.5163e-012	1.51671e-012	1.51712e-012	1.51753e-012	
FineR80	3.32417e-012	3.00802e-012	2.75139e-012	2.49285e-012	2.3884e-012	2.23689e-012	2.08408e-012	2.02327e-012	1.93377e-012	1.88991e-012	1.84577e-012	1.8013e-012	1.7383e-012	1.69329e-012	1.69463e-012	1.64956e-012	1.60376e-012	1.60461e-012	1.55903e-012	1.55987e-012	1.56029e-012	1.5144e-012	1.56155e-012	1.4689e-012	1.4693e-012	1.4697e-012	
FineR90	3.36854e-012	2.94205e-012	2.70439e-012	2.49148e-012	2.38705e-012	2.30022e-012	2.12922e-012	2.08664e-012	1.93253e-012	1.93501e-012	1.84457e-012	1.80013e-012	1.73712e-012	1.69214e-012	1.69374e-012	1.64842e-012	1.6493e-012	1.60376e-012	1.60461e-012	1.55878e-012	1.5592e-012	1.56004e-012	1.51374e-012	1.51415e-012	1.51456e-012	1.46865e-012	
FineR100	3.3024e-012	3.00529e-012	2.68468e-012	2.55478e-012	2.38624e-012	2.23452e-012	2.19258e-012	2.08536e-012	1.99594e-012	1.93377e-012	1.84364e-012	1.73458e-012	1.73621e-012	1.80222e-012	1.69258e-012	1.64729e-012	1.64842e-012	1.60264e-012	1.6035e-012	1.55768e-012	1.55852e-012	1.55894e-012	1.55962e-012	1.57815e-012	1.5139e-012	1.51431e-012	
FineR110	3.32042e-012	2.93994e-012	2.74854e-012	2.5352e-012	2.38515e-012	2.29838e-012	2.19206e-012	2.08485e-012	1.93081e-012	1.93329e-012	1.88896e-012	1.89113e-012	1.84624e-012	1.69053e-012	1.7383e-012	1.69303e-012	1.71193e-012	1.60221e-012	1.60307e-012	1.6035e-012	1.55768e-012	1.51185e-012	1.55894e-012	1.51308e-012	1.55978e-012	1.51349e-012	
FineR120	3.36498e-012	3.00381e-012	2.74736e-012	2.53463e-012	2.3846e-012	2.27901e-012	2.17277e-012	2.1023e-012	1.97629e-012	1.99717e-012	1.88849e-012	1.77947e-012	1.73503e-012	1.80104e-012	1.69142e-012	1.64598e-012	1.64685e-012	1.60153e-012	1.66703e-012	1.60307e-012	1.55726e-012	1.60436e-012	1.51185e-012	1.55894e-012	1.51267e-012	1.57749e-012	
FineR130	3.36431e-012	3.00318e-012	2.74677e-012	2.53407e-012	2.44845e-012	2.27848e-012	2.23663e-012	2.12949e-012	2.04017e-012	1.99669e-012	1.88801e-012	1.779e-012	1.78066e-012	1.75402e-012	1.73712e-012	1.64554e-012	1.64641e-012	1.64729e-012	1.66617e-012	1.66703e-012	1.60307e-012	1.55726e-012	1.6225e-012	1.62293e-012	1.57666e-012	1.57707e-012	
FineR140	3.36364e-012	3.00256e-012	2.68149e-012	2.5335e-012	2.4479e-012	2.27795e-012	2.2361e-012	2.03667e-012	1.97531e-012	1.94973e-012	1.8229e-012	1.77854e-012	1.7802e-012	1.79967e-012	1.69009e-012	1.75607e-012	1.64598e-012	1.64685e-012	1.6011e-012	1.6666e-012	1.60264e-012	1.6679e-012	1.55726e-012	1.57583e-012	1.51159e-012	1.512e-012	
FineR150	3.29885e-012	3.00194e-012	2.727e-012	2.53294e-012	2.3827e-012	2.27741e-012	2.23558e-012	2.08257e-012	2.03918e-012	1.93108e-012	1.95142e-012	1.82459e-012	1.84411e-012	1.79967e-012	1.80084e-012	1.75562e-012	1.69214e-012	1.64641e-012	1.64729e-012	1.66617e-012	1.66703e-012	1.66746e-012	1.55701e-012	1.55768e-012	1.6225e-012	1.62293e-012	
FineR160	3.31714e-012	3.00132e-012	2.79109e-012	2.53237e-012	2.44681e-012	2.23111e-012	2.18922e-012	2.14669e-012	1.99276e-012	1.99522e-012	1.95142e-012	1.88875e-012	1.84411e-012	1.79921e-012	1.68964e-012	1.6908e-012	1.64554e-012	1.64641e-012	1.60067e-012	1.64772e-012	1.6666e-012	1.62081e-012	1.62124e-012	1.55701e-012	1.51118e-012	1.51159e-012	
FineR170	3.36231e-012	3.00132e-012	2.68031e-012	2.53237e-012	2.44681e-012	2.27688e-012	2.23505e-012	2.12795e-012	2.03869e-012	1.9306e-012	1.82195e-012	1.77761e-012	1.77927e-012	1.73439e-012	1.73575e-012	1.75517e-012	1.69169e-012	1.64598e-012	1.64685e-012	1.6011e-012	1.61997e-012	1.556e-012	1.60307e-012	1.6035e-012	1.55768e-012	1.55785e-012	
FineR180	3.36231e-012	3.0007e-012	2.7905e-012	2.57798e-012	2.42812e-012	2.27634e-012	2.1887e-012	2.08156e-012	2.03819e-012	1.99474e-012	1.93259e-012	1.88828e-012	1.73276e-012	1.78047e-012	1.79993e-012	1.69035e-012	1.69124e-012	1.69214e-012	1.71105e-012	1.64755e-012	1.60179e-012	1.60221e-012	1.55642e-012	1.55684e-012	1.55726e-012	1.62208e-012	
FineR190	3.36165e-012	3.04606e-012	2.7899e-012	2.5774e-012	2.42756e-012	2.27634e-012	2.18845e-012	2.12771e-012	1.97383e-012	1.93038e-012	1.88611e-012	1.8878e-012	1.84344e-012	1.73393e-012	1.79993e-012	1.73647e-012	1.69124e-012	1.71017e-012	1.64667e-012	1.64711e-012	1.60136e-012	1.55559e-012	1.60264e-012	1.51021e-012	1.55726e-012	1.51103e-012	
FineR200	3.36165e-012	3.00008e-012	2.7899e-012	2.5774e-012	2.38133e-012	2.34044e-012	2.23426e-012	2.08132e-012	2.03796e-012	1.9299e-012	1.9321e-012	1.8878e-012	1.88949e-012	1.79855e-012	1.73511e-012	1.68991e-012	1.75542e-012	1.71017e-012	1.60007e-012	1.64711e-012	1.60136e-012	1.60179e-012	1.556e-012	1.55642e-012	1.55684e-012	1.55726e-012	
FineR210	3.40681e-012	3.00008e-012	2.7899e-012	2.59589e-012	2.38133e-012	2.34044e-012	2.16964e-012	2.12719e-012	2.03796e-012	1.9299e-012	1.88563e-012	1.84131e-012	1.84297e-012	1.7981e-012	1.73511e-012	1.70797e-012	1.70885e-012	1.64536e-012	1.64624e-012	1.6005e-012	1.60136e-012	1.60179e-012	1.60221e-012	1.55642e-012	1.55684e-012	1.55726e-012	
FineR220	3.36098e-012	3.04567e-012	2.7893e-012	2.64148e-012	2.49164e-012	2.27555e-012	2.18793e-012	2.08082e-012	2.08387e-012	1.97585e-012	1.95024e-012	1.82297e-012	1.84297e-012	1.7981e-012	1.68857e-012	1.68991e-012	1.64449e-012	1.64536e-012	1.59965e-012	1.64667e-012	1.66556e-012	1.61979e-012	1.55559e-012	1.57442e-012	1.55642e-012	1.51062e-012	
FineR230	3.3416e-012	2.9997e-012	2.72488e-012	2.57709e-012	2.49164e-012	2.27555e-012	2.18793e-012	2.08082e-012	2.08387e-012	1.92942e-012	1.93189e-012	1.82297e-012	1.77862e-012	1.7981e-012	1.68857e-012	1.75408e-012	1.69062e-012	1.64536e-012	1.59965e-012	1.64667e-012	1.66556e-012	1.55517e-012	1.62021e-012	1.62064e-012	1.62106e-012	1.57525e-012	
FineR240	3.40637e-012	2.9997e-012	2.78955e-012	2.57709e-012	2.36263e-012	2.27555e-012	2.16939e-012	2.14543e-012	2.03746e-012	1.99402e-012	1.93189e-012	1.84111e-012	1.82466e-012	1.7981e-012	1.79927e-012	1.68973e-012	1.69062e-012	1.75613e-012	1.6458e-012	1.64667e-012	1.60093e-012	1.60162e-012	1.62021e-012	1.55626e-012	1.55642e-012	1.51062e-012	
FineR250	3.40637e-012	2.9997e-012	2.78955e-012	2.57652e-012	2.44542e-012	2.27555e-012	2.16939e-012	2.08082e-012	1.97312e-012	1.99402e-012	1.93189e-012	1.84111e-012	1.84277e-012	1.77982e-012	1.79927e-012	1.68973e-012	1.69062e-012	1.64493e-012	1.64606e-012	1.60033e-012	1.60119e-012	1.60162e-012	1.55584e-012	1.55626e-012	1.49203e-012	1.62148e-012	
MinCout:	6.50115e-013	FineR:	0	FineC:	250

	FineC200	FineC201	FineC202	FineC203	FineC204	FineC205	FineC206	FineC207	FineC208	FineC209	FineC210	FineC211	FineC212	FineC213	FineC214	FineC215	FineC216	FineC217	FineC218	FineC219	FineC220	
FineR0	7.12177e-013	7.12177e-013	7.59839e-013	7.59839e-013	7.59839e-013	7.59839e-013	7.12514e-013	7.12514e-013	7.12514e-013	7.60186e-013	7.60186e-013	7.60186e-013	7.60186e-013	7.12851e-013	7.12851e-013	7.12851e-013	7.12851e-013	7.60533e-013	7.12851e-013	7.12851e-013	7.13189e-013	
FineR1	7.54693e-013	8.02296e-013	7.54693e-013	7.54693e-013	7.54693e-013	7.55039e-013	7.55039e-013	7.55039e-013	8.18888e-013	7.55039e-013	7.55039e-013	7.55039e-013	8.19237e-013	7.71632e-013	7.55386e-013	7.55386e-013	7.55386e-013	7.55386e-013	7.55386e-013	8.03007e-013	7.55386e-013	
FineR2	8.62273e-013	8.62273e-013	8.62273e-013	8.62273e-013	8.62273e-013	8.62273e-013	7.9836e-013	9.26842e-013	8.79282e-013	8.79282e-013	8.15379e-013	9.26842e-013	8.62631e-013	8.15728e-013	7.5151e-013	8.79634e-013	7.5151e-013	8.62989e-013	9.27203e-013	9.27203e-013	9.27203e-013	
FineR3	9.22965e-013	9.22965e-013	9.22965e-013	9.22965e-013	9.22965e-013	9.70476e-013	9.23325e-013	9.23325e-013	9.23325e-013	9.23325e-013	9.70845e-013	9.23325e-013	9.23686e-013	9.70845e-013	9.23686e-013	9.23686e-013	9.23686e-013	9.23686e-013	9.23686e-013	9.23686e-013	9.24046e-013	
FineR4	9.67198e-013	9.67198e-013	9.67198e-013	9.20103e-013	9.20103e-013	9.20103e-013	9.20103e-013	9.20103e-013	9.67567e-013	9.67567e-013	9.20463e-013	9.20463e-013	9.20463e-013	9.20463e-013	8.73358e-013	9.20823e-013	9.20823e-013	9.20823e-013	9.20823e-013	9.20823e-013	9.20823e-013	
FineR5	1.02863e-012	1.02863e-012	1.02863e-012	9.64588e-013	9.81579e-013	1.029e-012	1.029e-012	1.029e-012	1.029e-012	1.029e-012	1.029e-012	1.029e-012	9.81941e-013	1.02937e-012	9.81941e-013	1.02937e-012	1.02937e-012	1.02937e-012	9.82304e-013	9.82304e-013	9.82304e-013	
FineR6	9.61977e-013	1.09042e-012	1.00936e-012	1.13782e-012	9.62345e-013	1.02672e-012	1.02672e-012	1.02672e-012	1.02672e-012	1.0908e-012	1.0268e-012	1.0268e-012	1.0268e-012	1.0268e-012	1.0268e-012	1.09117e-012	1.09117e-012	9.79772e-013	1.02717e-012	1.02717e-012	1.04414e-012	
FineR7	1.07112e-012	1.07112e-012	1.02415e-012	1.07112e-012	1.02415e-012	1.02415e-012	1.02415e-012	1.02415e-012	1.02415e-012	1.08854e-012	1.08892e-012	1.02452e-012	1.02452e-012	1.02452e-012	1.02452e-012	1.08892e-012	1.04192e-012	1.02489e-012	1.02489e-012	1.02489e-012	1.02489e-012	
FineR8	1.08629e-012	1.08629e-012	1.08629e-012	1.08629e-012	1.13361e-012	1.13361e-012	1.13361e-012	1.08666e-012	1.08666e-012	1.08666e-012	1.08666e-012	1.08666e-012	1.08666e-012	1.134e-012	1.08703e-012	1.08703e-012	1.08703e-012	1.08703e-012	1.08703e-012	1.08703e-012	1.04007e-012	
FineR9	1.13132e-012	1.06715e-012	1.1316e-012	1.19576e-012	1.1316e-012	1.08469e-012	1.02024e-012	1.14884e-012	1.08469e-012	1.19614e-012	1.06753e-012	1.13199e-012	1.08506e-012	1.14922e-012	1.14922e-012	1.08506e-012	1.14922e-012	1.13237e-012	1.08506e-012	1.08506e-012	1.08544e-012	
FineR10	1.19377e-012	1.14689e-012	1.14689e-012	1.14689e-012	1.19415e-012	1.14689e-012	1.19415e-012	1.14727e-012	1.14727e-012	1.14727e-012	1.14727e-012	1.14727e-012	1.14727e-012	1.14764e-012	1.19454e-012	1.14764e-012	1.14764e-012	1.08318e-012	1.14764e-012	1.14764e-012	1.14764e-012	
FineR11	1.19216e-012	1.19216e-012	1.14531e-012	1.14531e-012	1.14531e-012	1.14531e-012	1.19255e-012	1.19255e-012	1.19255e-012	1.19255e-012	1.14569e-012	1.14569e-012	1.14569e-012	1.19293e-012	1.19293e-012	1.19293e-012	1.19293e-012	1.08186e-012	1.14606e-012	1.14606e-012	1.14606e-012	
FineR12	1.19083e-012	1.19083e-012	1.19083e-012	1.19083e-012	1.14401e-012	1.14401e-012	1.19122e-012	1.19122e-012	1.19122e-012	1.19122e-012	1.19122e-012	1.14439e-012	1.14439e-012	1.14439e-012	1.19161e-012	1.19161e-012	1.19161e-012	1.1271e-012	1.14476e-012	1.14476e-012	1.14476e-012	
FineR13	1.18923e-012	1.18923e-012	1.18923e-012	1.25373e-012	1.14243e-012	1.20693e-012	1.25412e-012	1.20693e-012	1.25412e-012	1.18961e-012	1.18961e-012	1.25412e-012	1.12538e-012	1.20731e-012	1.20731e-012	1.20731e-012	1.19028e-012	1.20731e-012	1.19028e-012	1.20769e-012	1.20769e-012	
FineR14	1.1879e-012	1.25241e-012	1.25241e-012	1.25241e-012	1.14113e-012	1.18829e-012	1.20564e-012	1.2528e-012	1.2528e-012	1.2528e-012	1.2528e-012	1.2528e-012	1.20602e-012	1.20602e-012	1.20602e-012	1.20602e-012	1.25319e-012	1.18867e-012	1.18867e-012	1.2064e-012	1.2064e-012	
FineR15	1.2511e-012	1.2511e-012	1.2511e-012	1.2511e-012	1.20435e-012	1.25149e-012	1.25149e-012	1.25149e-012	1.25149e-012	1.25149e-012	1.20473e-012	1.25149e-012	1.20473e-012	1.25187e-012	1.25187e-012	1.25187e-012	1.14058e-012	1.20511e-012	1.14058e-012	1.20511e-012	1.25226e-012	
FineR16	1.25017e-012	1.25017e-012	1.25017e-012	1.25017e-012	1.25017e-012	1.25017e-012	1.20344e-012	1.25056e-012	1.20344e-012	1.25056e-012	1.25056e-012	1.25056e-012	1.25056e-012	1.25056e-012	1.20382e-012	1.25095e-012	1.25095e-012	1.25095e-012	1.25095e-012	1.25095e-012	1.20419e-012	
FineR17	1.24886e-012	1.24886e-012	1.24886e-012	1.20215e-012	1.24925e-012	1.20215e-012	1.24925e-012	1.31378e-012	1.24925e-012	1.24925e-012	1.24925e-012	1.26706e-012	1.24925e-012	1.26706e-012	1.24963e-012	1.31417e-012	1.24963e-012	1.24963e-012	1.24963e-012	1.2029e-012	1.24963e-012	
FineR18	1.24781e-012	1.2949e-012	1.2482e-012	1.2482e-012	1.2482e-012	1.2482e-012	1.2482e-012	1.2015e-012	1.26578e-012	1.2015e-012	1.24859e-012	1.24859e-012	1.24859e-012	1.24859e-012	1.24859e-012	1.24859e-012	1.20188e-012	1.20188e-012	1.20188e-012	1.20188e-012	1.24898e-012	
FineR19	1.31144e-012	1.31144e-012	1.31144e-012	1.31144e-012	1.31144e-012	1.31144e-012	1.31183e-012	1.31183e-012	1.31183e-012	1.31183e-012	1.31183e-012	1.31183e-012	1.26514e-012	1.31183e-012	1.31222e-012	1.31222e-012	1.31222e-012	1.24766e-012	1.31222e-012	1.31222e-012	1.31222e-012	
FineR20	1.3104e-012	1.3104e-012	1.24623e-012	1.31079e-012	1.31079e-012	1.24623e-012	1.31079e-012	1.24623e-012	1.26413e-012	1.24662e-012	1.31118e-012	1.31118e-012	1.24662e-012	1.24662e-012	1.19995e-012	1.26451e-012	1.26451e-012	1.26451e-012	1.31157e-012	1.31157e-012	1.26451e-012	
MinCout:	7.12177e-013	FineR:	0	FineC:	200

