	CoarseC0	CoarseC10	CoarseC20	CoarseC30	CoarseC40	CoarseC50	CoarseC60	CoarseC70	CoarseC80	CoarseC90	CoarseC100	CoarseC110	CoarseC120	CoarseC130	CoarseC140	CoarseC150	CoarseC160	CoarseC170	CoarseC180	CoarseC190	CoarseC200	CoarseC210	CoarseC220	CoarseC230	CoarseC240	CoarseC250	
CoarseR0	-5.22885e-010	-5.22868e-010	-5.22896e-010	-5.22879e-010	-5.22879e-010	-5.22908e-010	-5.22891e-010	-5.22865e-010	-5.22865e-010	-5.22947e-010	-5.22947e-010	-5.22976e-010	-5.22921e-010	-5.23004e-010	-5.22995e-010	-5.23023e-010	-5.23023e-010	-5.23023e-010	-5.23156e-010	-5.23102e-010	-5.23102e-010	-5.23175e-010	-5.23175e-010	-5.2317e-010	-5.23221e-010	-5.23175e-010	
CoarseR10	-4.81969e-010	-4.81961e-010	-4.8197e-010	-4.81896e-010	-4.81983e-010	-4.81983e-010	-4.81935e-010	-4.81918e-010	-4.81949e-010	-4.81949e-010	-4.81949e-010	-4.81932e-010	-4.81979e-010	-4.81962e-010	-4.82041e-010	-4.82041e-010	-4.82041e-010	-4.82041e-010	-4.82088e-010	-4.82071e-010	-4.82119e-010	-4.82119e-010	-4.82119e-010	-4.82197e-010	-4.82119e-010	-4.82119e-010	
CoarseR20	-4.47143e-010	-4.47093e-010	-4.47076e-010	-4.47026e-010	-4.46989e-010	-4.47009e-010	-4.46992e-010	-4.47005e-010	-4.46955e-010	-4.46988e-010	-4.46988e-010	-4.47021e-010	-4.47021e-010	-4.47054e-010	-4.47054e-010	-4.47054e-010	-4.47087e-010	-4.47087e-010	-4.47087e-010	-4.47087e-010	-4.47119e-010	-4.47119e-010	-4.47227e-010	-4.47227e-010	-4.47227e-010	-4.47227e-010	
CoarseR30	-4.17374e-010	-4.17113e-010	-4.17097e-010	-4.17061e-010	-4.17009e-010	-4.17044e-010	-4.16992e-010	-4.17027e-010	-4.17035e-010	-4.17035e-010	-4.1707e-010	-4.17105e-010	-4.17054e-010	-4.17054e-010	-4.17054e-010	-4.17089e-010	-4.17089e-010	-4.1714e-010	-4.17175e-010	-4.17116e-010	-4.17116e-010	-4.17151e-010	-4.17151e-010	-4.17166e-010	-4.17151e-010	-4.17201e-010	
CoarseR40	-3.9185e-010	-3.91597e-010	-3.91623e-010	-3.9164e-010	-3.91624e-010	-3.91571e-010	-3.91579e-010	-3.91579e-010	-3.91616e-010	-3.916e-010	-3.916e-010	-3.916e-010	-3.91637e-010	-3.91637e-010	-3.91637e-010	-3.91637e-010	-3.91674e-010	-3.91674e-010	-3.91694e-010	-3.91712e-010	-3.91712e-010	-3.91712e-010	-3.91749e-010	-3.91749e-010	-3.91749e-010	-3.91802e-010	
CoarseR50	-3.69976e-010	-3.70003e-010	-3.69887e-010	-3.69949e-010	-3.69771e-010	-3.69756e-010	-3.69702e-010	-3.69741e-010	-3.69687e-010	-3.69687e-010	-3.69726e-010	-3.69726e-010	-3.69765e-010	-3.69711e-010	-3.69711e-010	-3.6975e-010	-3.6975e-010	-3.6975e-010	-3.6975e-010	-3.6979e-010	-3.69844e-010	-3.69844e-010	-3.69844e-010	-3.69883e-010	-3.69883e-010	-3.69883e-010	
CoarseR60	-3.51429e-010	-3.51352e-010	-3.51381e-010	-3.51305e-010	-3.5127e-010	-3.5127e-010	-3.51047e-010	-3.51047e-010	-3.50992e-010	-3.51033e-010	-3.51033e-010	-3.51041e-010	-3.51082e-010	-3.51082e-010	-3.51061e-010	-3.51061e-010	-3.51123e-010	-3.51102e-010	-3.51165e-010	-3.51102e-010	-3.51102e-010	-3.51143e-010	-3.51206e-010	-3.51143e-010	-3.51143e-010	-3.51185e-010	
CoarseR70	-3.35668e-010	-3.35141e-010	-3.35149e-010	-3.35029e-010	-3.35037e-010	-3.34981e-010	-3.35046e-010	-3.35046e-010	-3.34754e-010	-3.34798e-010	-3.34742e-010	-3.34871e-010	-3.34849e-010	-3.34785e-010	-3.34871e-010	-3.34892e-010	-3.34892e-010	-3.34829e-010	-3.34958e-010	-3.34936e-010	-3.34936e-010	-3.34958e-010	-3.34979e-010	-3.34979e-010	-3.34979e-010	-3.34979e-010	
CoarseR80	-3.21555e-010	-3.21586e-010	-3.21117e-010	-3.21016e-010	-3.21004e-010	-3.20948e-010	-3.20948e-010	-3.20956e-010	-3.20892e-010	-3.2088e-010	-3.20751e-010	-3.2074e-010	-3.20716e-010	-3.20716e-010	-3.20762e-010	-3.20762e-010	-3.20762e-010	-3.20762e-010	-3.20807e-010	-3.20807e-010	-3.20807e-010	-3.20807e-010	-3.20807e-010	-3.20807e-010	-3.20807e-010	-3.20852e-010	
CoarseR90	-3.0889e-010	-3.08899e-010	-3.08974e-010	-3.08588e-010	-3.08531e-010	-3.08531e-010	-3.08475e-010	-3.08499e-010	-3.08465e-010	-3.08489e-010	-3.0848e-010	-3.08324e-010	-3.08324e-010	-3.08324e-010	-3.08371e-010	-3.08371e-010	-3.08371e-010	-3.08371e-010	-3.08418e-010	-3.08362e-010	-3.08362e-010	-3.08531e-010	-3.08465e-010	-3.08531e-010	-3.08531e-010	-3.08531e-010	
CoarseR100	-2.98108e-010	-2.98002e-010	-2.97946e-010	-2.97956e-010	-2.97723e-010	-2.97675e-010	-2.97667e-010	-2.97701e-010	-2.97635e-010	-2.97683e-010	-2.97627e-010	-2.97627e-010	-2.97469e-010	-2.97518e-010	-2.97566e-010	-2.97534e-010	-2.97534e-010	-2.97583e-010	-2.97583e-010	-2.97583e-010	-2.97583e-010	-2.97698e-010	-2.97631e-010	-2.97631e-010	-2.97631e-010	-2.97631e-010	
CoarseR110	-2.88617e-010	-2.88578e-010	-2.88479e-010	-2.88465e-010	-2.88323e-010	-2.88323e-010	-2.88266e-010	-2.88317e-010	-2.8826e-010	-2.88328e-010	-2.88271e-010	-2.88321e-010	-2.88119e-010	-2.88062e-010	-2.88113e-010	-2.88113e-010	-2.88113e-010	-2.8823e-010	-2.8823e-010	-2.8823e-010	-2.8823e-010	-2.8823e-010	-2.8828e-010	-2.8828e-010	-2.8828e-010	-2.88213e-010	
CoarseR120	-2.804e-010	-2.80425e-010	-2.80249e-010	-2.80261e-010	-2.80093e-010	-2.80161e-010	-2.80037e-010	-2.80032e-010	-2.80049e-010	-2.79976e-010	-2.80044e-010	-2.80028e-010	-2.79916e-010	-2.7986e-010	-2.79912e-010	-2.79912e-010	-2.79912e-010	-2.79912e-010	-2.79963e-010	-2.79963e-010	-2.79963e-010	-2.79963e-010	-2.80015e-010	-2.80015e-010	-2.80015e-010	-2.80015e-010	
CoarseR130	-2.73402e-010	-2.73333e-010	-2.73224e-010	-2.73169e-010	-2.73207e-010	-2.73151e-010	-2.7322e-010	-2.73164e-010	-2.73095e-010	-2.73092e-010	-2.73092e-010	-2.73092e-010	-2.72661e-010	-2.72658e-010	-2.72658e-010	-2.72683e-010	-2.72658e-010	-2.7271e-010	-2.72736e-010	-2.72789e-010	-2.72789e-010	-2.72789e-010	-2.72789e-010	-2.72763e-010	-2.72789e-010	-2.72763e-010	
CoarseR140	-2.67157e-010	-2.67103e-010	-2.67118e-010	-2.67062e-010	-2.66909e-010	-2.66978e-010	-2.66977e-010	-2.66923e-010	-2.66921e-010	-2.66921e-010	-2.66866e-010	-2.6692e-010	-2.6651e-010	-2.66454e-010	-2.66454e-010	-2.66508e-010	-2.66508e-010	-2.66508e-010	-2.66508e-010	-2.66508e-010	-2.66562e-010	-2.66562e-010	-2.66562e-010	-2.66562e-010	-2.66616e-010	-2.66616e-010	
CoarseR150	-2.61974e-010	-2.61919e-010	-2.61809e-010	-2.6178e-010	-2.61725e-010	-2.6167e-010	-2.6167e-010	-2.61696e-010	-2.61641e-010	-2.61685e-010	-2.61586e-010	-2.61641e-010	-2.61227e-010	-2.61227e-010	-2.61173e-010	-2.61227e-010	-2.61297e-010	-2.61227e-010	-2.61227e-010	-2.61352e-010	-2.61297e-010	-2.61352e-010	-2.61352e-010	-2.61282e-010	-2.61282e-010	-2.61352e-010	
CoarseR160	-2.57388e-010	-2.57348e-010	-2.57348e-010	-2.57238e-010	-2.5728e-010	-2.57226e-010	-2.57226e-010	-2.57197e-010	-2.57197e-010	-2.57198e-010	-2.57198e-010	-2.56852e-010	-2.56727e-010	-2.56808e-010	-2.56808e-010	-2.56808e-010	-2.56754e-010	-2.56809e-010	-2.56809e-010	-2.56809e-010	-2.56809e-010	-2.56809e-010	-2.56865e-010	-2.56865e-010	-2.56865e-010	-2.56865e-010	
CoarseR170	-2.5358e-010	-2.53526e-010	-2.53416e-010	-2.53362e-010	-2.53349e-010	-2.53349e-010	-2.53295e-010	-2.53366e-010	-2.53368e-010	-2.53368e-010	-2.53368e-010	-2.52921e-010	-2.52977e-010	-2.52949e-010	-2.52923e-010	-2.52923e-010	-2.52979e-010	-2.52979e-010	-2.52979e-010	-2.52982e-010	-2.52979e-010	-2.52982e-010	-2.52982e-010	-2.52982e-010	-2.52982e-010	-2.52982e-010	
CoarseR180	-2.50536e-010	-2.50427e-010	-2.50388e-010	-2.50388e-010	-2.5036e-010	-2.50379e-010	-2.50404e-010	-2.50351e-010	-2.50298e-010	-2.50298e-010	-2.50354e-010	-2.49905e-010	-2.49905e-010	-2.49961e-010	-2.49961e-010	-2.49908e-010	-2.49965e-010	-2.49965e-010	-2.49965e-010	-2.49965e-010	-2.49965e-010	-2.49965e-010	-2.49968e-010	-2.49968e-010	-2.50021e-010	-2.49968e-010	
CoarseR190	-2.48026e-010	-2.48014e-010	-2.47957e-010	-2.48001e-010	-2.47949e-010	-2.47896e-010	-2.47839e-010	-2.47869e-010	-2.47888e-010	-2.47863e-010	-2.47888e-010	-2.47436e-010	-2.47493e-010	-2.47565e-010	-2.47441e-010	-2.47441e-010	-2.47498e-010	-2.47498e-010	-2.47498e-010	-2.47498e-010	-2.47555e-010	-2.47555e-010	-2.47502e-010	-2.47502e-010	-2.47502e-010	-2.47502e-010	
CoarseR200	-2.46182e-010	-2.46072e-010	-2.46144e-010	-2.46132e-010	-2.4608e-010	-2.461e-010	-2.461e-010	-2.46073e-010	-2.46021e-010	-2.46021e-010	-2.46027e-010	-2.4564e-010	-2.45625e-010	-2.45697e-010	-2.45645e-010	-2.45645e-010	-2.45702e-010	-2.45702e-010	-2.45702e-010	-2.45702e-010	-2.4565e-010	-2.45759e-010	-2.45708e-010	-2.45708e-010	-2.45708e-010	-2.45765e-010	
CoarseR210	-2.44756e-010	-2.44746e-010	-2.44792e-010	-2.4478e-010	-2.4478e-010	-2.44728e-010	-2.44677e-010	-2.44749e-010	-2.44698e-010	-2.44698e-010	-2.44704e-010	-2.4434e-010	-2.44397e-010	-2.44346e-010	-2.44346e-010	-2.44346e-010	-2.44403e-010	-2.44403e-010	-2.44403e-010	-2.44352e-010	-2.44352e-010	-2.44409e-010	-2.44409e-010	-2.44409e-010	-2.44409e-010	-2.44384e-010	
CoarseR220	-2.43914e-010	-2.43925e-010	-2.4394e-010	-2.43986e-010	-2.43877e-010	-2.4396e-010	-2.43851e-010	-2.43873e-010	-2.4393e-010	-2.43879e-010	-2.43879e-010	-2.4352e-010	-2.43578e-010	-2.43578e-010	-2.43578e-010	-2.43502e-010	-2.43527e-010	-2.43585e-010	-2.43585e-010	-2.43585e-010	-2.43585e-010	-2.43534e-010	-2.43642e-010	-2.43591e-010	-2.43591e-010	-2.43591e-010	
CoarseR230	-2.43615e-010	-2.43555e-010	-2.43567e-010	-2.43592e-010	-2.43556e-010	-2.4353e-010	-2.4348e-010	-2.4348e-010	-2.43429e-010	-2.43429e-010	-2.43509e-010	-2.43199e-010	-2.43149e-010	-2.43149e-010	-2.43206e-010	-2.43206e-010	-2.43206e-010	-2.43206e-010	-2.43214e-010	-2.43214e-010	-2.43214e-010	-2.43214e-010	-2.43214e-010	-2.43271e-010	-2.43271e-010	-2.43271e-010	
CoarseR240	-2.43455e-010	-2.43395e-010	-2.43588e-010	-2.43555e-010	-2.43577e-010	-2.43528e-010	-2.4342e-010	-2.43442e-010	-2.43442e-010	-2.4345e-010	-2.43475e-010	-2.43139e-010	-2.43147e-010	-2.43219e-010	-2.43147e-010	-2.43219e-010	-2.43169e-010	-2.43169e-010	-2.43227e-010	-2.43227e-010	-2.43227e-010	-2.43227e-010	-2.43227e-010	-2.43284e-010	-2.43284e-010	-2.43234e-010	
CoarseR250	-2.43805e-010	-2.43804e-010	-2.43867e-010	-2.43857e-010	-2.43929e-010	-2.43879e-010	-2.43772e-010	-2.43902e-010	-2.43853e-010	-2.43853e-010	-2.43803e-010	-2.43491e-010	-2.43491e-010	-2.43499e-010	-2.43499e-010	-2.43499e-010	-2.43449e-010	-2.43579e-010	-2.43579e-010	-2.43507e-010	-2.43507e-010	-2.43564e-010	-2.43564e-010	-2.43564e-010	-2.43564e-010	-2.43515e-010	
MinCout:	-2.43139e-010	CoarseR:	240	CoarseC:	110

	CoarseC150	CoarseC151	CoarseC152	CoarseC153	CoarseC154	CoarseC155	CoarseC156	CoarseC157	CoarseC158	CoarseC159	CoarseC160	CoarseC161	CoarseC162	CoarseC163	CoarseC164	CoarseC165	CoarseC166	CoarseC167	CoarseC168	CoarseC169	CoarseC170	
CoarseR240	-2.43256e-010	-2.43289e-010	-2.43256e-010	-2.43231e-010	-2.43231e-010	-2.43231e-010	-2.43231e-010	-2.43231e-010	-2.43256e-010	-2.43231e-010	-2.43159e-010	-2.43256e-010	-2.43111e-010	-2.43231e-010	-2.43111e-010	-2.43231e-010	-2.43111e-010	-2.43111e-010	-2.43062e-010	-2.43111e-010	-2.43119e-010	
CoarseR241	-2.43261e-010	-2.43333e-010	-2.43261e-010	-2.43285e-010	-2.43211e-010	-2.43261e-010	-2.43261e-010	-2.43261e-010	-2.43211e-010	-2.43211e-010	-2.43163e-010	-2.43211e-010	-2.43163e-010	-2.43163e-010	-2.4322e-010	-2.43148e-010	-2.4322e-010	-2.43148e-010	-2.43148e-010	-2.43148e-010	-2.43148e-010	
CoarseR242	-2.43265e-010	-2.43322e-010	-2.43322e-010	-2.43322e-010	-2.43322e-010	-2.43322e-010	-2.43394e-010	-2.43394e-010	-2.43394e-010	-2.43322e-010	-2.43322e-010	-2.43322e-010	-2.4325e-010	-2.43272e-010	-2.4325e-010	-2.43272e-010	-2.43127e-010	-2.432e-010	-2.43127e-010	-2.43127e-010	-2.43127e-010	
CoarseR243	-2.43399e-010	-2.43424e-010	-2.43374e-010	-2.43302e-010	-2.43302e-010	-2.43302e-010	-2.43302e-010	-2.43374e-010	-2.43374e-010	-2.43374e-010	-2.43302e-010	-2.43302e-010	-2.43302e-010	-2.43302e-010	-2.43302e-010	-2.43229e-010	-2.43229e-010	-2.43157e-010	-2.43229e-010	-2.43181e-010	-2.43157e-010	
CoarseR244	-2.43379e-010	-2.43404e-010	-2.43461e-010	-2.43461e-010	-2.43436e-010	-2.43461e-010	-2.43461e-010	-2.43461e-010	-2.43411e-010	-2.43389e-010	-2.43411e-010	-2.43411e-010	-2.43339e-010	-2.43339e-010	-2.43266e-010	-2.43339e-010	-2.43219e-010	-2.43219e-010	-2.43219e-010	-2.43219e-010	-2.43219e-010	
CoarseR245	-2.43441e-010	-2.43513e-010	-2.43489e-010	-2.43489e-010	-2.43416e-010	-2.43546e-010	-2.43489e-010	-2.43441e-010	-2.43489e-010	-2.43441e-010	-2.43441e-010	-2.43498e-010	-2.43426e-010	-2.43426e-010	-2.43369e-010	-2.43378e-010	-2.43321e-010	-2.43306e-010	-2.43256e-010	-2.43306e-010	-2.43256e-010	
CoarseR246	-2.43528e-010	-2.43601e-010	-2.43576e-010	-2.43576e-010	-2.43576e-010	-2.43576e-010	-2.43551e-010	-2.43526e-010	-2.43551e-010	-2.43526e-010	-2.43551e-010	-2.43479e-010	-2.43406e-010	-2.43406e-010	-2.43406e-010	-2.43406e-010	-2.43286e-010	-2.43286e-010	-2.43286e-010	-2.43286e-010	-2.43358e-010	
CoarseR247	-2.43606e-010	-2.43679e-010	-2.43751e-010	-2.43751e-010	-2.43679e-010	-2.43679e-010	-2.43679e-010	-2.43679e-010	-2.43679e-010	-2.43629e-010	-2.43556e-010	-2.43606e-010	-2.43509e-010	-2.43509e-010	-2.43436e-010	-2.43509e-010	-2.43316e-010	-2.43291e-010	-2.43316e-010	-2.43316e-010	-2.43316e-010	
CoarseR248	-2.43781e-010	-2.43781e-010	-2.43781e-010	-2.43757e-010	-2.43757e-010	-2.43732e-010	-2.43781e-010	-2.43707e-010	-2.43862e-010	-2.43659e-010	-2.43644e-010	-2.43611e-010	-2.43669e-010	-2.43539e-010	-2.43596e-010	-2.43476e-010	-2.43476e-010	-2.43404e-010	-2.43404e-010	-2.43404e-010	-2.43404e-010	
CoarseR249	-2.43869e-010	-2.43869e-010	-2.43917e-010	-2.43917e-010	-2.43867e-010	-2.43819e-010	-2.43819e-010	-2.43819e-010	-2.43819e-010	-2.43747e-010	-2.43747e-010	-2.43674e-010	-2.43699e-010	-2.43554e-010	-2.43627e-010	-2.43506e-010	-2.43554e-010	-2.43434e-010	-2.43434e-010	-2.43434e-010	-2.43434e-010	
CoarseR250	-2.43948e-010	-2.43948e-010	-2.43948e-010	-2.43948e-010	-2.43948e-010	-2.43948e-010	-2.44005e-010	-2.43875e-010	-2.439e-010	-2.43948e-010	-2.43634e-010	-2.43835e-010	-2.43594e-010	-2.43835e-010	-2.43522e-010	-2.43907e-010	-2.43522e-010	-2.43522e-010	-2.43522e-010	-2.43522e-010	-2.43522e-010	
CoarseR251	-2.43988e-010	-2.43963e-010	-2.43963e-010	-2.44036e-010	-2.44036e-010	-2.44036e-010	-2.44036e-010	-2.44036e-010	-2.43988e-010	-2.43915e-010	-2.43867e-010	-2.43795e-010	-2.43722e-010	-2.43745e-010	-2.43602e-010	-2.43793e-010	-2.4348e-010	-2.4348e-010	-2.4348e-010	-2.4348e-010	-2.4348e-010	
CoarseR252	-2.44051e-010	-2.44051e-010	-2.44076e-010	-2.44076e-010	-2.44051e-010	-2.44051e-010	-2.44051e-010	-2.44051e-010	-2.44076e-010	-2.43883e-010	-2.43931e-010	-2.4381e-010	-2.43833e-010	-2.43762e-010	-2.4381e-010	-2.43568e-010	-2.43617e-010	-2.43568e-010	-2.43568e-010	-2.43568e-010	-2.43568e-010	
CoarseR253	-2.44132e-010	-2.44082e-010	-2.44082e-010	-2.44082e-010	-2.44082e-010	-2.44082e-010	-2.44082e-010	-2.4414e-010	-2.44082e-010	-2.43841e-010	-2.4414e-010	-2.43706e-010	-2.4414e-010	-2.43633e-010	-2.4414e-010	-2.43648e-010	-2.43633e-010	-2.43633e-010	-2.43584e-010	-2.43633e-010	-2.43706e-010	
CoarseR254	-2.44147e-010	-2.44147e-010	-2.44147e-010	-2.4422e-010	-2.44147e-010	-2.44147e-010	-2.44147e-010	-2.44147e-010	-2.44027e-010	-2.44099e-010	-2.43954e-010	-2.43834e-010	-2.43905e-010	-2.43712e-010	-2.43954e-010	-2.43639e-010	-2.43664e-010	-2.43664e-010	-2.43639e-010	-2.43664e-010	-2.43664e-010	
CoarseR255	-2.44228e-010	-2.44228e-010	-2.44228e-010	-2.44228e-010	-2.44228e-010	-2.44285e-010	-2.44236e-010	-2.44236e-010	-2.44236e-010	-2.4384e-010	-2.44115e-010	-2.4385e-010	-2.44043e-010	-2.43777e-010	-2.44236e-010	-2.43705e-010	-2.43777e-010	-2.43705e-010	-2.43777e-010	-2.43802e-010	-2.43777e-010	
CoarseR255	-2.44285e-010	-2.44285e-010	-2.44285e-010	-2.44236e-010	-2.44285e-010	-2.44285e-010	-2.44236e-010	-2.44236e-010	-2.4397e-010	-2.44091e-010	-2.43922e-010	-2.44043e-010	-2.43777e-010	-2.44043e-010	-2.43777e-010	-2.43777e-010	-2.43777e-010	-2.43777e-010	-2.43705e-010	-2.43777e-010	-2.43729e-010	
CoarseR255	-2.44285e-010	-2.44285e-010	-2.44285e-010	-2.44228e-010	-2.44204e-010	-2.44261e-010	-2.44204e-010	-2.44155e-010	-2.4401e-010	-2.43985e-010	-2.4397e-010	-2.4397e-010	-2.43825e-010	-2.4384e-010	-2.43777e-010	-2.4372e-010	-2.43777e-010	-2.43777e-010	-2.4372e-010	-2.43777e-010	-2.43777e-010	
CoarseR255	-2.44204e-010	-2.44204e-010	-2.44204e-010	-2.44204e-010	-2.44204e-010	-2.44204e-010	-2.44155e-010	-2.44204e-010	-2.4389e-010	-2.44213e-010	-2.43842e-010	-2.44155e-010	-2.4372e-010	-2.44204e-010	-2.4372e-010	-2.4372e-010	-2.4372e-010	-2.4372e-010	-2.43777e-010	-2.4372e-010	-2.43777e-010	
CoarseR255	-2.44204e-010	-2.44204e-010	-2.44204e-010	-2.44204e-010	-2.44204e-010	-2.44204e-010	-2.44083e-010	-2.44083e-010	-2.43962e-010	-2.4401e-010	-2.4389e-010	-2.43962e-010	-2.43769e-010	-2.4401e-010	-2.43769e-010	-2.43769e-010	-2.4372e-010	-2.4372e-010	-2.4372e-010	-2.4372e-010	-2.4372e-010	
CoarseR255	-2.44253e-010	-2.44204e-010	-2.44204e-010	-2.44204e-010	-2.44204e-010	-2.44204e-010	-2.44083e-010	-2.44083e-010	-2.43938e-010	-2.43962e-010	-2.4389e-010	-2.4402e-010	-2.43769e-010	-2.43817e-010	-2.4372e-010	-2.4372e-010	-2.4372e-010	-2.4372e-010	-2.4372e-010	-2.4372e-010	-2.4372e-010	
MinCout:	-2.43062e-010	CoarseR:	240	CoarseC:	168

	FineC0	FineC10	FineC20	FineC30	FineC40	FineC50	FineC60	FineC70	FineC80	FineC90	FineC100	FineC110	FineC120	FineC130	FineC140	FineC150	FineC160	FineC170	FineC180	FineC190	FineC200	FineC210	FineC220	FineC230	FineC240	FineC250	
FineR0	-2.42682e-010	-2.42682e-010	-2.42559e-010	-2.42559e-010	-2.42689e-010	-2.42689e-010	-2.42689e-010	-2.42642e-010	-2.42689e-010	-2.42689e-010	-2.42617e-010	-2.42624e-010	-2.42689e-010	-2.42714e-010	-2.42714e-010	-2.42649e-010	-2.42697e-010	-2.42747e-010	-2.42689e-010	-2.42747e-010	-2.42747e-010	-2.42721e-010	-2.42699e-010	-2.42697e-010	-2.42747e-010	-2.42747e-010	
FineR10	-2.42739e-010	-2.42617e-010	-2.42689e-010	-2.42689e-010	-2.42747e-010	-2.42747e-010	-2.42747e-010	-2.42674e-010	-2.42674e-010	-2.42674e-010	-2.42674e-010	-2.42674e-010	-2.42804e-010	-2.42804e-010	-2.42674e-010	-2.42829e-010	-2.42674e-010	-2.42747e-010	-2.42804e-010	-2.42804e-010	-2.42732e-010	-2.42804e-010	-2.42732e-010	-2.42804e-010	-2.42804e-010	-2.42804e-010	
FineR20	-2.42909e-010	-2.42859e-010	-2.42859e-010	-2.42859e-010	-2.42867e-010	-2.42867e-010	-2.42867e-010	-2.42867e-010	-2.42867e-010	-2.42867e-010	-2.42867e-010	-2.42924e-010	-2.42924e-010	-2.42867e-010	-2.42924e-010	-2.42997e-010	-2.42924e-010	-2.42924e-010	-2.42867e-010	-2.42924e-010	-2.42924e-010	-2.42924e-010	-2.42949e-010	-2.42974e-010	-2.42997e-010	-2.42997e-010	
FineR30	-2.43049e-010	-2.43014e-010	-2.43071e-010	-2.43071e-010	-2.43071e-010	-2.42999e-010	-2.42949e-010	-2.43021e-010	-2.43007e-010	-2.43021e-010	-2.43079e-010	-2.43079e-010	-2.43007e-010	-2.43079e-010	-2.43079e-010	-2.43079e-010	-2.43079e-010	-2.43079e-010	-2.43079e-010	-2.43079e-010	-2.43129e-010	-2.43079e-010	-2.43079e-010	-2.43079e-010	-2.43079e-010	-2.43079e-010	
FineR40	-2.43153e-010	-2.43186e-010	-2.43129e-010	-2.43079e-010	-2.43161e-010	-2.43161e-010	-2.43161e-010	-2.43161e-010	-2.43089e-010	-2.43219e-010	-2.43219e-010	-2.43219e-010	-2.43146e-010	-2.43219e-010	-2.43219e-010	-2.43219e-010	-2.43194e-010	-2.43219e-010	-2.43219e-010	-2.43219e-010	-2.43219e-010	-2.43219e-010	-2.43276e-010	-2.43219e-010	-2.43146e-010	-2.43219e-010	
FineR50	-2.43261e-010	-2.43261e-010	-2.43139e-010	-2.43211e-010	-2.43211e-010	-2.43211e-010	-2.43269e-010	-2.43269e-010	-2.43269e-010	-2.43269e-010	-2.43269e-010	-2.43269e-010	-2.43219e-010	-2.43269e-010	-2.43269e-010	-2.43269e-010	-2.43269e-010	-2.43269e-010	-2.43269e-010	-2.43326e-010	-2.43269e-010	-2.43269e-010	-2.43276e-010	-2.43276e-010	-2.43276e-010	-2.43276e-010	
FineR60	-2.43229e-010	-2.43229e-010	-2.43229e-010	-2.43179e-010	-2.43236e-010	-2.43309e-010	-2.43236e-010	-2.43236e-010	-2.43236e-010	-2.43294e-010	-2.43294e-010	-2.43318e-010	-2.43294e-010	-2.43294e-010	-2.43318e-010	-2.43366e-010	-2.43366e-010	-2.43294e-010	-2.43294e-010	-2.43294e-010	-2.43366e-010	-2.43318e-010	-2.43294e-010	-2.43366e-010	-2.43294e-010	-2.43294e-010	
FineR70	-2.43426e-010	-2.43304e-010	-2.43304e-010	-2.43318e-010	-2.43326e-010	-2.43254e-010	-2.43326e-010	-2.43326e-010	-2.43408e-010	-2.43311e-010	-2.43254e-010	-2.43384e-010	-2.43384e-010	-2.43408e-010	-2.43311e-010	-2.43384e-010	-2.43408e-010	-2.43384e-010	-2.43408e-010	-2.43336e-010	-2.43408e-010	-2.43384e-010	-2.43384e-010	-2.43408e-010	-2.43336e-010	-2.43441e-010	
FineR80	-2.43386e-010	-2.43336e-010	-2.43336e-010	-2.43336e-010	-2.43344e-010	-2.43368e-010	-2.43344e-010	-2.43344e-010	-2.43344e-010	-2.43344e-010	-2.43344e-010	-2.43401e-010	-2.43344e-010	-2.43344e-010	-2.43344e-010	-2.43401e-010	-2.43401e-010	-2.43401e-010	-2.43401e-010	-2.43401e-010	-2.43401e-010	-2.43401e-010	-2.43401e-010	-2.43401e-010	-2.43401e-010	-2.43401e-010	
FineR90	-2.43476e-010	-2.43426e-010	-2.43368e-010	-2.43401e-010	-2.43426e-010	-2.43353e-010	-2.43426e-010	-2.43411e-010	-2.43426e-010	-2.43411e-010	-2.43483e-010	-2.43483e-010	-2.43434e-010	-2.43483e-010	-2.43483e-010	-2.43483e-010	-2.43434e-010	-2.43411e-010	-2.43483e-010	-2.43483e-010	-2.43483e-010	-2.43434e-010	-2.43361e-010	-2.43531e-010	-2.43411e-010	-2.43483e-010	
FineR100	-2.43461e-010	-2.43411e-010	-2.43411e-010	-2.43435e-010	-2.43411e-010	-2.43386e-010	-2.43434e-010	-2.43361e-010	-2.43443e-010	-2.43491e-010	-2.43443e-010	-2.43443e-010	-2.43443e-010	-2.43419e-010	-2.43443e-010	-2.43443e-010	-2.43443e-010	-2.43501e-010	-2.43443e-010	-2.43419e-010	-2.43443e-010	-2.43573e-010	-2.43501e-010	-2.43419e-010	-2.43419e-010	-2.43501e-010	
FineR110	-2.43493e-010	-2.43421e-010	-2.43443e-010	-2.43443e-010	-2.43443e-010	-2.43443e-010	-2.43443e-010	-2.43501e-010	-2.43501e-010	-2.43501e-010	-2.43501e-010	-2.43501e-010	-2.43451e-010	-2.43501e-010	-2.43501e-010	-2.43501e-010	-2.43509e-010	-2.43501e-010	-2.43501e-010	-2.43501e-010	-2.43558e-010	-2.43501e-010	-2.43558e-010	-2.43558e-010	-2.43436e-010	-2.43558e-010	
FineR120	-2.4355e-010	-2.43428e-010	-2.43428e-010	-2.43428e-010	-2.43428e-010	-2.43501e-010	-2.43451e-010	-2.43428e-010	-2.43509e-010	-2.43436e-010	-2.43486e-010	-2.43509e-010	-2.43558e-010	-2.43436e-010	-2.43558e-010	-2.43461e-010	-2.43486e-010	-2.43509e-010	-2.43436e-010	-2.43509e-010	-2.43509e-010	-2.43486e-010	-2.43436e-010	-2.43558e-010	-2.43543e-010	-2.43566e-010	
FineR130	-2.43536e-010	-2.43486e-010	-2.43501e-010	-2.43486e-010	-2.43486e-010	-2.4351e-010	-2.43436e-010	-2.4351e-010	-2.43494e-010	-2.43518e-010	-2.43518e-010	-2.43568e-010	-2.43494e-010	-2.43518e-010	-2.43518e-010	-2.43518e-010	-2.43518e-010	-2.43518e-010	-2.43518e-010	-2.43518e-010	-2.43518e-010	-2.43518e-010	-2.43518e-010	-2.43518e-010	-2.43518e-010	-2.43518e-010	
FineR140	-2.43536e-010	-2.4351e-010	-2.4351e-010	-2.4351e-010	-2.43568e-010	-2.43568e-010	-2.43568e-010	-2.43518e-010	-2.43518e-010	-2.43518e-010	-2.43518e-010	-2.43518e-010	-2.43576e-010	-2.43518e-010	-2.43566e-010	-2.43494e-010	-2.43503e-010	-2.43576e-010	-2.43518e-010	-2.43518e-010	-2.43518e-010	-2.43576e-010	-2.43518e-010	-2.43518e-010	-2.43568e-010	-2.43576e-010	
FineR150	-2.43488e-010	-2.4351e-010	-2.43486e-010	-2.4351e-010	-2.43568e-010	-2.43568e-010	-2.43568e-010	-2.43496e-010	-2.43446e-010	-2.43494e-010	-2.43518e-010	-2.43568e-010	-2.43518e-010	-2.43576e-010	-2.43576e-010	-2.43576e-010	-2.43576e-010	-2.43576e-010	-2.43576e-010	-2.43576e-010	-2.43576e-010	-2.43503e-010	-2.43576e-010	-2.43576e-010	-2.43576e-010	-2.43576e-010	
FineR160	-2.43618e-010	-2.43618e-010	-2.43568e-010	-2.43496e-010	-2.43568e-010	-2.43568e-010	-2.43496e-010	-2.43503e-010	-2.43625e-010	-2.43576e-010	-2.43503e-010	-2.43576e-010	-2.43503e-010	-2.43625e-010	-2.43576e-010	-2.43576e-010	-2.43576e-010	-2.43576e-010	-2.43576e-010	-2.43576e-010	-2.43576e-010	-2.43503e-010	-2.43576e-010	-2.43576e-010	-2.43576e-010	-2.43503e-010	
FineR170	-2.43545e-010	-2.43545e-010	-2.43496e-010	-2.43496e-010	-2.43553e-010	-2.43553e-010	-2.43553e-010	-2.43553e-010	-2.43553e-010	-2.43503e-010	-2.43625e-010	-2.43625e-010	-2.43576e-010	-2.43633e-010	-2.43576e-010	-2.43633e-010	-2.43561e-010	-2.43561e-010	-2.43633e-010	-2.43633e-010	-2.43561e-010	-2.4361e-010	-2.43561e-010	-2.4361e-010	-2.4361e-010	-2.43633e-010	
FineR180	-2.43603e-010	-2.43603e-010	-2.43553e-010	-2.43553e-010	-2.43625e-010	-2.43625e-010	-2.43553e-010	-2.43553e-010	-2.4361e-010	-2.43553e-010	-2.4361e-010	-2.43633e-010	-2.4361e-010	-2.43561e-010	-2.43683e-010	-2.43561e-010	-2.43633e-010	-2.43633e-010	-2.4361e-010	-2.43561e-010	-2.4361e-010	-2.43561e-010	-2.4361e-010	-2.43633e-010	-2.43561e-010	-2.4361e-010	
FineR190	-2.43603e-010	-2.43603e-010	-2.43553e-010	-2.43553e-010	-2.43553e-010	-2.43625e-010	-2.43553e-010	-2.4361e-010	-2.4361e-010	-2.4361e-010	-2.43683e-010	-2.4361e-010	-2.4361e-010	-2.4361e-010	-2.4361e-010	-2.4361e-010	-2.43683e-010	-2.4361e-010	-2.4361e-010	-2.4361e-010	-2.4361e-010	-2.4361e-010	-2.43561e-010	-2.43668e-010	-2.43668e-010	-2.4361e-010	
FineR200	-2.43603e-010	-2.43603e-010	-2.43603e-010	-2.43553e-010	-2.43553e-010	-2.4361e-010	-2.4361e-010	-2.4361e-010	-2.4361e-010	-2.4361e-010	-2.4361e-010	-2.43668e-010	-2.4361e-010	-2.4361e-010	-2.43668e-010	-2.43668e-010	-2.43668e-010	-2.43668e-010	-2.4361e-010	-2.43668e-010	-2.43668e-010	-2.43668e-010	-2.43668e-010	-2.43668e-010	-2.43668e-010	-2.43668e-010	
FineR210	-2.43652e-010	-2.43603e-010	-2.43553e-010	-2.43553e-010	-2.4361e-010	-2.43538e-010	-2.4361e-010	-2.4361e-010	-2.4361e-010	-2.4361e-010	-2.43668e-010	-2.43668e-010	-2.43668e-010	-2.43668e-010	-2.43668e-010	-2.43596e-010	-2.43668e-010	-2.43668e-010	-2.43668e-010	-2.43596e-010	-2.43668e-010	-2.43668e-010	-2.43668e-010	-2.43668e-010	-2.43668e-010	-2.43668e-010	
FineR220	-2.4371e-010	-2.43588e-010	-2.4366e-010	-2.43588e-010	-2.43538e-010	-2.4361e-010	-2.4361e-010	-2.43668e-010	-2.43668e-010	-2.43596e-010	-2.43596e-010	-2.43668e-010	-2.43538e-010	-2.43668e-010	-2.43668e-010	-2.43668e-010	-2.43668e-010	-2.43668e-010	-2.43668e-010	-2.43668e-010	-2.43668e-010	-2.43596e-010	-2.43668e-010	-2.43596e-010	-2.43693e-010	-2.43668e-010	
FineR230	-2.4371e-010	-2.4366e-010	-2.4366e-010	-2.4366e-010	-2.4366e-010	-2.43538e-010	-2.4361e-010	-2.43538e-010	-2.43596e-010	-2.43668e-010	-2.43668e-010	-2.43668e-010	-2.43668e-010	-2.43668e-010	-2.43668e-010	-2.43668e-010	-2.43668e-010	-2.43596e-010	-2.43596e-010	-2.43668e-010	-2.43596e-010	-2.43668e-010	-2.43668e-010	-2.43596e-010	-2.43678e-010	-2.43725e-010	
FineR240	-2.43637e-010	-2.43588e-010	-2.43588e-010	-2.43588e-010	-2.4366e-010	-2.4366e-010	-2.43596e-010	-2.43596e-010	-2.43596e-010	-2.43596e-010	-2.43596e-010	-2.43596e-010	-2.43596e-010	-2.43596e-010	-2.43596e-010	-2.43596e-010	-2.43596e-010	-2.43653e-010	-2.43668e-010	-2.43725e-010	-2.43668e-010	-2.43725e-010	-2.43668e-010	-2.43596e-010	-2.43653e-010	-2.43653e-010	
FineR250	-2.43637e-010	-2.4366e-010	-2.43588e-010	-2.43588e-010	-2.43588e-010	-2.43596e-010	-2.43645e-010	-2.43718e-010	-2.43718e-010	-2.43668e-010	-2.43668e-010	-2.43668e-010	-2.43596e-010	-2.43668e-010	-2.43645e-010	-2.43718e-010	-2.43668e-010	-2.43668e-010	-2.43645e-010	-2.43653e-010	-2.43718e-010	-2.43668e-010	-2.43725e-010	-2.43653e-010	-2.43725e-010	-2.43653e-010	
MinCout:	-2.42559e-010	FineR:	0	FineC:	20

	FineC0	FineC1	FineC2	FineC3	FineC4	FineC5	FineC6	FineC7	FineC8	FineC9	FineC10	FineC11	FineC12	FineC13	FineC14	FineC15	FineC16	FineC17	FineC18	FineC19	FineC20	
FineR0	-2.42632e-010	-2.42559e-010	-2.42559e-010	-2.42559e-010	-2.42559e-010	-2.42559e-010	-2.42559e-010	-2.42559e-010	-2.42559e-010	-2.42559e-010	-2.42559e-010	-2.42632e-010	-2.42559e-010	-2.42632e-010	-2.42559e-010	-2.42617e-010	-2.42559e-010	-2.42559e-010	-2.42617e-010	-2.42617e-010	-2.42559e-010	
FineR1	-2.42553e-010	-2.42553e-010	-2.42553e-010	-2.42553e-010	-2.42553e-010	-2.4261e-010	-2.42553e-010	-2.42553e-010	-2.42553e-010	-2.42553e-010	-2.42553e-010	-2.42553e-010	-2.42553e-010	-2.42553e-010	-2.4261e-010	-2.4261e-010	-2.4261e-010	-2.4261e-010	-2.4261e-010	-2.4261e-010	-2.4261e-010	
FineR2	-2.42622e-010	-2.42622e-010	-2.42646e-010	-2.42549e-010	-2.42622e-010	-2.42622e-010	-2.42622e-010	-2.42574e-010	-2.42574e-010	-2.42574e-010	-2.42632e-010	-2.42574e-010	-2.42622e-010	-2.42549e-010	-2.42549e-010	-2.42549e-010	-2.42679e-010	-2.42632e-010	-2.42632e-010	-2.42607e-010	-2.42607e-010	
FineR3	-2.42546e-010	-2.42619e-010	-2.42571e-010	-2.42619e-010	-2.42571e-010	-2.42546e-010	-2.42546e-010	-2.42619e-010	-2.42669e-010	-2.42619e-010	-2.42546e-010	-2.42546e-010	-2.42619e-010	-2.42546e-010	-2.42619e-010	-2.42619e-010	-2.42546e-010	-2.42546e-010	-2.42546e-010	-2.42619e-010	-2.42619e-010	
FineR4	-2.42608e-010	-2.42633e-010	-2.42658e-010	-2.42658e-010	-2.42583e-010	-2.42633e-010	-2.42608e-010	-2.42608e-010	-2.42583e-010	-2.42583e-010	-2.42583e-010	-2.42583e-010	-2.42583e-010	-2.42633e-010	-2.42608e-010	-2.42608e-010	-2.42583e-010	-2.42608e-010	-2.42608e-010	-2.42511e-010	-2.42583e-010	
FineR5	-2.42622e-010	-2.42622e-010	-2.42622e-010	-2.42598e-010	-2.42622e-010	-2.42622e-010	-2.42622e-010	-2.42622e-010	-2.42622e-010	-2.42598e-010	-2.42622e-010	-2.42622e-010	-2.42598e-010	-2.42598e-010	-2.42622e-010	-2.42622e-010	-2.4267e-010	-2.42598e-010	-2.42598e-010	-2.42622e-010	-2.42622e-010	
FineR6	-2.42612e-010	-2.42612e-010	-2.42612e-010	-2.42637e-010	-2.42637e-010	-2.42637e-010	-2.42612e-010	-2.42637e-010	-2.42637e-010	-2.42637e-010	-2.42637e-010	-2.42695e-010	-2.42695e-010	-2.42637e-010	-2.42612e-010	-2.42612e-010	-2.42565e-010	-2.42612e-010	-2.42637e-010	-2.42695e-010	-2.42695e-010	
FineR7	-2.42627e-010	-2.42652e-010	-2.42652e-010	-2.42627e-010	-2.42627e-010	-2.42652e-010	-2.42627e-010	-2.42652e-010	-2.42652e-010	-2.42579e-010	-2.42652e-010	-2.42627e-010	-2.42685e-010	-2.42627e-010	-2.42685e-010	-2.42652e-010	-2.42685e-010	-2.42685e-010	-2.42627e-010	-2.42685e-010	-2.42627e-010	
FineR8	-2.42642e-010	-2.42692e-010	-2.42692e-010	-2.4257e-010	-2.42642e-010	-2.42692e-010	-2.42692e-010	-2.42642e-010	-2.42692e-010	-2.4257e-010	-2.42642e-010	-2.42642e-010	-2.4257e-010	-2.42692e-010	-2.42667e-010	-2.42642e-010	-2.42642e-010	-2.42642e-010	-2.42692e-010	-2.42692e-010	-2.42692e-010	
FineR9	-2.42624e-010	-2.42682e-010	-2.42674e-010	-2.42682e-010	-2.42682e-010	-2.42674e-010	-2.42624e-010	-2.42634e-010	-2.4261e-010	-2.4261e-010	-2.42682e-010	-2.42682e-010	-2.42682e-010	-2.42682e-010	-2.42682e-010	-2.42707e-010	-2.42682e-010	-2.42682e-010	-2.42634e-010	-2.42634e-010	-2.42682e-010	
FineR10	-2.42617e-010	-2.42739e-010	-2.42689e-010	-2.42689e-010	-2.42689e-010	-2.42617e-010	-2.42667e-010	-2.42664e-010	-2.42689e-010	-2.42689e-010	-2.42689e-010	-2.42617e-010	-2.42689e-010	-2.42617e-010	-2.42674e-010	-2.42689e-010	-2.42674e-010	-2.42689e-010	-2.42674e-010	-2.42674e-010	-2.42674e-010	
FineR11	-2.42707e-010	-2.42729e-010	-2.42779e-010	-2.42707e-010	-2.42707e-010	-2.42729e-010	-2.42779e-010	-2.42707e-010	-2.42657e-010	-2.42729e-010	-2.42779e-010	-2.42657e-010	-2.42657e-010	-2.42729e-010	-2.42729e-010	-2.42657e-010	-2.42779e-010	-2.42707e-010	-2.42729e-010	-2.42729e-010	-2.42707e-010	
FineR12	-2.42761e-010	-2.42714e-010	-2.42689e-010	-2.42714e-010	-2.42761e-010	-2.42714e-010	-2.42747e-010	-2.42747e-010	-2.42689e-010	-2.42689e-010	-2.42689e-010	-2.42689e-010	-2.42689e-010	-2.42689e-010	-2.42689e-010	-2.42689e-010	-2.42771e-010	-2.42819e-010	-2.42747e-010	-2.42747e-010	-2.42747e-010	
FineR13	-2.42672e-010	-2.42754e-010	-2.42729e-010	-2.42754e-010	-2.42754e-010	-2.42729e-010	-2.42729e-010	-2.42754e-010	-2.42754e-010	-2.42729e-010	-2.42729e-010	-2.42681e-010	-2.42754e-010	-2.42754e-010	-2.42729e-010	-2.42754e-010	-2.42729e-010	-2.42754e-010	-2.42729e-010	-2.42754e-010	-2.42754e-010	
FineR14	-2.42762e-010	-2.42786e-010	-2.42762e-010	-2.42762e-010	-2.42762e-010	-2.42762e-010	-2.42786e-010	-2.42762e-010	-2.42762e-010	-2.42771e-010	-2.42714e-010	-2.42786e-010	-2.42714e-010	-2.42786e-010	-2.42786e-010	-2.42844e-010	-2.42844e-010	-2.42844e-010	-2.42762e-010	-2.42762e-010	-2.42771e-010	
FineR15	-2.42722e-010	-2.42794e-010	-2.42746e-010	-2.42794e-010	-2.42802e-010	-2.42794e-010	-2.42794e-010	-2.42729e-010	-2.42746e-010	-2.42754e-010	-2.42794e-010	-2.42852e-010	-2.42802e-010	-2.42876e-010	-2.42876e-010	-2.42754e-010	-2.42876e-010	-2.42819e-010	-2.42826e-010	-2.42754e-010	-2.42802e-010	
FineR16	-2.42786e-010	-2.42754e-010	-2.42776e-010	-2.42834e-010	-2.42776e-010	-2.42826e-010	-2.42811e-010	-2.42834e-010	-2.42762e-010	-2.42762e-010	-2.42704e-010	-2.42884e-010	-2.42776e-010	-2.42834e-010	-2.42884e-010	-2.42754e-010	-2.42826e-010	-2.42762e-010	-2.42884e-010	-2.42884e-010	-2.42834e-010	
FineR17	-2.42794e-010	-2.42859e-010	-2.42786e-010	-2.42786e-010	-2.42736e-010	-2.42786e-010	-2.42844e-010	-2.42769e-010	-2.42794e-010	-2.42859e-010	-2.42866e-010	-2.42844e-010	-2.42794e-010	-2.42794e-010	-2.42866e-010	-2.42794e-010	-2.42794e-010	-2.42844e-010	-2.42866e-010	-2.42794e-010	-2.42794e-010	
FineR18	-2.42826e-010	-2.42826e-010	-2.42876e-010	-2.42826e-010	-2.42899e-010	-2.42819e-010	-2.42924e-010	-2.42876e-010	-2.42826e-010	-2.42826e-010	-2.42874e-010	-2.42874e-010	-2.42826e-010	-2.42852e-010	-2.42876e-010	-2.42876e-010	-2.42924e-010	-2.42826e-010	-2.42876e-010	-2.42876e-010	-2.42924e-010	
FineR19	-2.42826e-010	-2.42826e-010	-2.42884e-010	-2.42826e-010	-2.42884e-010	-2.42826e-010	-2.42826e-010	-2.42884e-010	-2.42884e-010	-2.42956e-010	-2.42884e-010	-2.42884e-010	-2.42884e-010	-2.42884e-010	-2.42884e-010	-2.42884e-010	-2.42884e-010	-2.42956e-010	-2.42884e-010	-2.42834e-010	-2.42884e-010	
FineR20	-2.42859e-010	-2.42859e-010	-2.42931e-010	-2.42859e-010	-2.42916e-010	-2.42859e-010	-2.42859e-010	-2.42859e-010	-2.42859e-010	-2.42859e-010	-2.42916e-010	-2.42916e-010	-2.42907e-010	-2.42859e-010	-2.42916e-010	-2.42916e-010	-2.42916e-010	-2.42859e-010	-2.42916e-010	-2.42834e-010	-2.42859e-010	
MinCout:	-2.42511e-010	FineR:	4	FineC:	19

