	CoarseC0	CoarseC10	CoarseC20	CoarseC30	CoarseC40	CoarseC50	CoarseC60	CoarseC70	CoarseC80	CoarseC90	CoarseC100	CoarseC110	CoarseC120	CoarseC130	CoarseC140	CoarseC150	CoarseC160	CoarseC170	CoarseC180	CoarseC190	CoarseC200	CoarseC210	CoarseC220	CoarseC230	CoarseC240	CoarseC250	
CoarseR0	-5.20313e-010	-4.91171e-010	-4.70797e-010	-4.55333e-010	-4.43126e-010	-4.33523e-010	-4.26451e-010	-4.20962e-010	-4.16459e-010	-4.13261e-010	-4.10709e-010	-4.0876e-010	-4.07422e-010	-4.06447e-010	-4.05934e-010	-4.05641e-010	-4.05369e-010	-4.05656e-010	-4.06694e-010	-4.07964e-010	-4.09164e-010	-4.10372e-010	-4.11298e-010	-4.11972e-010	-4.12494e-010	-4.12828e-010	
CoarseR10	-3.94649e-010	-3.68633e-010	-3.50296e-010	-3.36446e-010	-3.25654e-010	-3.17014e-010	-3.10259e-010	-3.05084e-010	-3.00933e-010	-2.97953e-010	-2.95688e-010	-2.94308e-010	-2.93387e-010	-2.937e-010	-2.95042e-010	-2.96384e-010	-2.98059e-010	-2.99851e-010	-3.01561e-010	-3.03483e-010	-3.05203e-010	-3.06881e-010	-3.08488e-010	-3.09951e-010	-3.11174e-010	-3.12228e-010	
CoarseR20	-3.05237e-010	-2.81485e-010	-2.65111e-010	-2.52079e-010	-2.41967e-010	-2.33786e-010	-2.27463e-010	-2.22588e-010	-2.18836e-010	-2.16398e-010	-2.15406e-010	-2.15574e-010	-2.16274e-010	-2.1749e-010	-2.18945e-010	-2.2074e-010	-2.22748e-010	-2.24904e-010	-2.27152e-010	-2.29696e-010	-2.31942e-010	-2.3441e-010	-2.36732e-010	-2.3898e-010	-2.41257e-010	-2.43326e-010	
CoarseR30	-2.37141e-010	-2.15138e-010	-1.9962e-010	-1.87315e-010	-1.776e-010	-1.69974e-010	-1.63949e-010	-1.5969e-010	-1.5742e-010	-1.5623e-010	-1.55865e-010	-1.56315e-010	-1.57217e-010	-1.58551e-010	-1.60473e-010	-1.62725e-010	-1.65259e-010	-1.67904e-010	-1.70913e-010	-1.73977e-010	-1.7727e-010	-1.80762e-010	-1.8435e-010	-1.88091e-010	-1.9246e-010	-1.97129e-010	
CoarseR40	-1.8471e-010	-1.63937e-010	-1.48988e-010	-1.37164e-010	-1.27836e-010	-1.20458e-010	-1.15846e-010	-1.12546e-010	-1.10442e-010	-1.09483e-010	-1.09219e-010	-1.09859e-010	-1.11011e-010	-1.12763e-010	-1.15135e-010	-1.17897e-010	-1.21039e-010	-1.24484e-010	-1.28351e-010	-1.32627e-010	-1.37356e-010	-1.42858e-010	-1.49215e-010	-1.55203e-010	-1.6052e-010	-1.65093e-010	
CoarseR50	-1.43076e-010	-1.22988e-010	-1.08401e-010	-9.68989e-011	-8.82056e-011	-8.19623e-011	-7.74139e-011	-7.43525e-011	-7.24355e-011	-7.15243e-011	-7.16969e-011	-7.24605e-011	-7.40637e-011	-7.63294e-011	-7.91406e-011	-8.25615e-011	-8.65578e-011	-9.12015e-011	-9.6272e-011	-1.02927e-010	-1.10602e-010	-1.17733e-010	-1.24017e-010	-1.29641e-010	-1.34656e-010	-1.39134e-010	
CoarseR60	-1.09566e-010	-9.00559e-011	-7.57285e-011	-6.48951e-011	-5.69362e-011	-5.06451e-011	-4.63049e-011	-4.32619e-011	-4.13872e-011	-4.07891e-011	-4.0917e-011	-4.21837e-011	-4.41132e-011	-4.70597e-011	-5.05917e-011	-5.47673e-011	-5.98592e-011	-6.63929e-011	-7.50418e-011	-8.33065e-011	-9.06939e-011	-9.74041e-011	-1.0345e-010	-1.08713e-010	-1.13583e-010	-1.17863e-010	
CoarseR70	-8.22872e-011	-6.29055e-011	-4.91138e-011	-3.87009e-011	-3.07283e-011	-2.45608e-011	-2.02412e-011	-1.72761e-011	-1.55504e-011	-1.52138e-011	-1.57488e-011	-1.7396e-011	-1.98201e-011	-2.32117e-011	-2.7359e-011	-3.30571e-011	-4.08226e-011	-5.01355e-011	-5.86385e-011	-6.64964e-011	-7.35221e-011	-8.0034e-011	-8.57818e-011	-9.0939e-011	-9.55354e-011	-9.97728e-011	
CoarseR80	-5.9668e-011	-4.04272e-011	-2.69618e-011	-1.65985e-011	-8.58588e-012	-2.53157e-012	1.84129e-012	4.6329e-012	6.07112e-012	6.3348e-012	5.57363e-012	3.69874e-012	6.6862e-013	-3.60553e-012	-9.13721e-012	-1.81032e-011	-2.77779e-011	-3.65766e-011	-4.46183e-011	-5.1897e-011	-5.86178e-011	-6.48568e-011	-7.03235e-011	-7.5279e-011	-7.97809e-011	-8.37858e-011	
CoarseR90	-4.0754e-011	-2.18166e-011	-8.34236e-012	2.03639e-012	9.97871e-012	1.61024e-011	2.0345e-011	2.31405e-011	2.45743e-011	2.45565e-011	2.32413e-011	2.09434e-011	1.73422e-011	1.22979e-011	3.40479e-012	-6.66847e-012	-1.59151e-011	-2.43062e-011	-3.19013e-011	-3.9012e-011	-4.54322e-011	-5.14004e-011	-5.66974e-011	-6.14859e-011	-6.58803e-011	-6.98328e-011	
CoarseR100	-2.5013e-011	-6.18565e-012	7.46323e-012	1.78827e-011	2.6047e-011	3.19617e-011	3.62757e-011	3.89087e-011	4.01257e-011	4.00586e-011	3.84716e-011	3.57844e-011	3.13035e-011	2.34769e-011	1.31366e-011	3.54858e-012	-5.18559e-012	-1.32754e-011	-2.06376e-011	-2.74501e-011	-3.36524e-011	-3.93947e-011	-4.44877e-011	-4.92039e-011	-5.3465e-011	-5.7379e-011	
CoarseR110	-1.17908e-011	7.30279e-012	2.08562e-011	3.15685e-011	3.95463e-011	4.56455e-011	4.98527e-011	5.24511e-011	5.35791e-011	5.33398e-011	5.15733e-011	4.82905e-011	4.2493e-011	3.22e-011	2.22812e-011	1.3165e-011	4.73836e-012	-3.0114e-012	-1.04019e-011	-1.69957e-011	-2.30137e-011	-2.85327e-011	-3.35545e-011	-3.81565e-011	-4.24044e-011	-4.62532e-011	
CoarseR120	-4.43747e-013	1.86256e-011	3.24948e-011	4.29949e-011	5.12191e-011	5.74155e-011	6.1555e-011	6.41385e-011	6.52713e-011	6.48561e-011	6.28342e-011	5.88016e-011	5.03179e-011	4.00969e-011	3.06977e-011	2.18902e-011	1.36595e-011	6.1217e-012	-8.15082e-013	-7.20161e-012	-1.30588e-011	-1.84745e-011	-2.34286e-011	-2.7928e-011	-3.216e-011	-3.59801e-011	
CoarseR130	8.80703e-012	2.82512e-011	4.21493e-011	5.29258e-011	6.12583e-011	6.74713e-011	7.16244e-011	7.43172e-011	7.52386e-011	7.47359e-011	7.24661e-011	6.76253e-011	5.74368e-011	4.76151e-011	3.84564e-011	2.99116e-011	2.20459e-011	1.46866e-011	7.96123e-012	1.67463e-012	-4.11161e-012	-9.44513e-012	-1.43141e-011	-1.87899e-011	-2.29136e-011	-2.65442e-011	
CoarseR140	1.67106e-011	3.63009e-011	5.03651e-011	6.12185e-011	6.95668e-011	7.59151e-011	8.02965e-011	8.29124e-011	8.39894e-011	8.33036e-011	8.08284e-011	7.41721e-011	6.4066e-011	5.45419e-011	4.57407e-011	3.74045e-011	2.9735e-011	2.24597e-011	1.5995e-011	9.90604e-012	4.1193e-012	-1.07765e-012	-5.93558e-012	-1.02923e-011	-1.45088e-011	-1.82024e-011	
CoarseR150	2.32128e-011	4.31106e-011	5.73306e-011	6.83278e-011	7.67304e-011	8.3314e-011	8.77083e-011	9.056e-011	9.16288e-011	9.09793e-011	8.80399e-011	8.03048e-011	7.03608e-011	6.12339e-011	5.24987e-011	4.45344e-011	3.69974e-011	2.98351e-011	2.34188e-011	1.72453e-011	1.17203e-011	6.59294e-012	1.72211e-012	-2.69922e-012	-6.68137e-012	-1.03795e-011	
CoarseR160	2.86265e-011	4.86e-011	6.3085e-011	7.42892e-011	8.29313e-011	8.96415e-011	9.4105e-011	9.71867e-011	9.8287e-011	9.76545e-011	9.46271e-011	8.58392e-011	7.64441e-011	6.72485e-011	5.88255e-011	5.09367e-011	4.36013e-011	3.67061e-011	3.0316e-011	2.4369e-011	1.87745e-011	1.35887e-011	8.82943e-012	4.4907e-012	3.55969e-013	-3.33141e-012	
CoarseR170	3.31571e-011	5.34134e-011	6.78494e-011	7.93573e-011	8.80875e-011	9.49135e-011	9.96629e-011	1.02751e-010	1.04199e-010	1.03673e-010	1.00299e-010	9.13401e-011	8.18724e-011	7.32688e-011	6.48017e-011	5.6989e-011	4.98284e-011	4.29128e-011	3.66689e-011	3.07639e-011	2.52321e-011	2.0107e-011	1.54574e-011	1.10539e-011	7.05891e-012	3.24423e-012	
CoarseR180	3.66645e-011	5.71159e-011	7.19224e-011	8.34099e-011	9.26445e-011	9.95065e-011	1.04397e-010	1.07636e-010	1.09306e-010	1.08962e-010	1.05499e-010	9.63417e-011	8.71414e-011	7.84825e-011	7.04964e-011	6.26861e-011	5.55493e-011	4.87407e-011	4.25259e-011	3.66064e-011	3.1146e-011	2.61761e-011	2.13473e-011	1.70428e-011	1.31472e-011	9.38696e-012	
CoarseR190	3.93789e-011	6.00663e-011	7.50756e-011	8.68568e-011	9.6042e-011	1.03315e-010	1.08557e-010	1.11912e-010	1.13736e-010	1.13436e-010	1.10112e-010	1.01186e-010	9.2053e-011	8.35804e-011	7.55374e-011	6.79851e-011	6.08199e-011	5.41665e-011	4.80646e-011	4.2061e-011	3.66015e-011	3.14544e-011	2.68792e-011	2.25093e-011	1.84925e-011	1.46569e-011	
CoarseR200	4.13911e-011	6.23931e-011	7.76805e-011	8.96135e-011	9.91213e-011	1.06528e-010	1.1199e-010	1.15669e-010	1.17505e-010	1.1761e-010	1.14357e-010	1.05627e-010	9.68181e-011	8.82633e-011	8.03304e-011	7.27646e-011	6.57788e-011	5.92352e-011	5.3056e-011	4.7123e-011	4.16616e-011	3.66762e-011	3.18796e-011	2.75029e-011	2.34029e-011	1.96479e-011	
CoarseR210	4.28799e-011	6.41839e-011	7.96216e-011	9.17939e-011	1.01594e-010	1.09154e-010	1.14771e-010	1.1869e-010	1.20839e-010	1.2125e-010	1.18239e-010	1.09759e-010	1.00979e-010	9.26474e-011	8.47963e-011	7.73326e-011	7.02352e-011	6.37327e-011	5.75227e-011	5.17464e-011	4.62454e-011	4.11052e-011	3.64134e-011	3.20688e-011	2.79623e-011	2.41777e-011	
CoarseR220	4.39226e-011	6.54384e-011	8.10852e-011	9.35939e-011	1.03521e-010	1.11254e-010	1.17163e-010	1.21235e-010	1.23688e-010	1.24204e-010	1.21787e-010	1.13491e-010	1.04981e-010	9.66238e-011	8.87875e-011	8.14114e-011	7.43741e-011	6.77971e-011	6.16763e-011	5.57505e-011	5.03868e-011	4.5237e-011	4.05796e-011	3.61116e-011	3.19353e-011	2.82992e-011	
CoarseR230	4.45007e-011	6.62869e-011	8.21513e-011	9.48689e-011	1.04953e-010	1.13021e-010	1.19035e-010	1.2324e-010	1.25923e-010	1.26684e-010	1.24891e-010	1.17036e-010	1.08521e-010	1.00376e-010	9.24841e-011	8.50172e-011	7.80769e-011	7.14997e-011	6.54049e-011	5.95747e-011	5.40251e-011	4.8907e-011	4.41747e-011	3.97861e-011	3.57133e-011	3.18521e-011	
CoarseR240	4.46647e-011	6.67291e-011	8.27843e-011	9.57704e-011	1.05972e-010	1.14229e-010	1.20576e-010	1.24987e-010	1.27917e-010	1.28946e-010	1.27554e-010	1.20174e-010	1.11713e-010	1.03639e-010	9.57086e-011	8.83439e-011	8.13577e-011	7.47385e-011	6.85907e-011	6.28485e-011	5.7379e-011	5.22122e-011	4.7398e-011	4.29683e-011	3.88883e-011	3.50413e-011	
CoarseR250	4.47084e-011	6.69235e-011	8.31146e-011	9.62946e-011	1.06785e-010	1.15195e-010	1.21615e-010	1.26389e-010	1.29448e-010	1.30717e-010	1.29744e-010	1.23101e-010	1.14651e-010	1.0654e-010	9.87332e-011	9.12409e-011	8.4442e-011	7.77437e-011	7.15576e-011	6.58333e-011	6.02578e-011	5.491e-011	5.01377e-011	4.56737e-011	4.15735e-011	3.77192e-011	
MinCout:	3.55969e-013	CoarseR:	160	CoarseC:	240

	CoarseC40	CoarseC41	CoarseC42	CoarseC43	CoarseC44	CoarseC45	CoarseC46	CoarseC47	CoarseC48	CoarseC49	CoarseC50	CoarseC51	CoarseC52	CoarseC53	CoarseC54	CoarseC55	CoarseC56	CoarseC57	CoarseC58	CoarseC59	CoarseC60	
CoarseR70	-2.84154e-011	-2.77968e-011	-2.71112e-011	-2.63644e-011	-2.56919e-011	-2.50852e-011	-2.45136e-011	-2.39652e-011	-2.33247e-011	-2.28137e-011	-2.23324e-011	-2.18315e-011	-2.13899e-011	-2.08829e-011	-2.0363e-011	-2.00156e-011	-1.95029e-011	-1.91374e-011	-1.87374e-011	-1.83189e-011	-1.79634e-011	
CoarseR71	-2.60385e-011	-2.53606e-011	-2.46388e-011	-2.40598e-011	-2.33293e-011	-2.2687e-011	-2.21608e-011	-2.16578e-011	-2.1038e-011	-2.04293e-011	-1.98898e-011	-1.94552e-011	-1.88954e-011	-1.85143e-011	-1.81606e-011	-1.7592e-011	-1.7189e-011	-1.67209e-011	-1.64309e-011	-1.59723e-011	-1.5602e-011	
CoarseR72	-2.38103e-011	-2.31366e-011	-2.23987e-011	-2.17221e-011	-2.10759e-011	-2.0375e-011	-1.9834e-011	-1.93121e-011	-1.86777e-011	-1.82364e-011	-1.75993e-011	-1.7149e-011	-1.66287e-011	-1.61916e-011	-1.57627e-011	-1.54235e-011	-1.48584e-011	-1.43968e-011	-1.40668e-011	-1.36558e-011	-1.33331e-011	
CoarseR73	-2.14828e-011	-2.08124e-011	-2.02449e-011	-1.95509e-011	-1.88499e-011	-1.83172e-011	-1.7695e-011	-1.70957e-011	-1.64249e-011	-1.5986e-011	-1.5438e-011	-1.49072e-011	-1.4458e-011	-1.39217e-011	-1.35749e-011	-1.30763e-011	-1.26781e-011	-1.22354e-011	-1.18313e-011	-1.14865e-011	-1.10789e-011	
CoarseR74	-1.93114e-011	-1.85417e-011	-1.79369e-011	-1.72658e-011	-1.66105e-011	-1.59789e-011	-1.54028e-011	-1.49304e-011	-1.43492e-011	-1.37493e-011	-1.32846e-011	-1.2739e-011	-1.22088e-011	-1.17175e-011	-1.13146e-011	-1.08794e-011	-1.04871e-011	-1.00921e-011	-9.7078e-012	-9.30409e-012	-8.90283e-012	
CoarseR75	-1.71896e-011	-1.63831e-011	-1.56161e-011	-1.5054e-011	-1.4421e-011	-1.38349e-011	-1.32019e-011	-1.26291e-011	-1.2113e-011	-1.16393e-011	-1.10132e-011	-1.0532e-011	-1.00486e-011	-9.56273e-012	-9.05734e-012	-8.68808e-012	-8.17712e-012	-7.82967e-012	-7.405e-012	-7.0676e-012	-6.71151e-012	
CoarseR76	-1.48848e-011	-1.42282e-011	-1.35271e-011	-1.28641e-011	-1.22587e-011	-1.16344e-011	-1.11101e-011	-1.0541e-011	-9.88163e-012	-9.35052e-012	-8.87491e-012	-8.35511e-012	-7.87592e-012	-7.45439e-012	-6.99622e-012	-6.50829e-012	-6.16726e-012	-5.67527e-012	-5.29856e-012	-4.96504e-012	-4.56851e-012	
CoarseR77	-1.27998e-011	-1.20423e-011	-1.13869e-011	-1.06678e-011	-1.00242e-011	-9.46424e-012	-8.90197e-012	-8.37933e-012	-7.76752e-012	-7.24022e-012	-6.68315e-012	-6.20996e-012	-5.73451e-012	-5.25603e-012	-4.80161e-012	-4.48269e-012	-3.99683e-012	-3.49166e-012	-3.07491e-012	-2.79011e-012	-2.45844e-012	
CoarseR78	-1.0679e-011	-9.96861e-012	-9.25511e-012	-8.55847e-012	-7.96243e-012	-7.34444e-012	-6.74287e-012	-6.22414e-012	-5.67727e-012	-5.13499e-012	-4.62555e-012	-4.17461e-012	-3.59724e-012	-3.12241e-012	-2.77731e-012	-2.31339e-012	-1.91806e-012	-1.47805e-012	-1.06602e-012	-6.34617e-013	-2.89387e-013	
CoarseR79	-8.65118e-012	-7.94479e-012	-7.21207e-012	-6.54191e-012	-5.90691e-012	-5.29344e-012	-4.67621e-012	-4.22376e-012	-3.66219e-012	-3.14147e-012	-2.59235e-012	-2.12723e-012	-1.55355e-012	-1.08236e-012	-8.0192e-013	-1.7555e-013	1.98752e-013	5.92009e-013	9.12137e-013	1.29496e-012	1.78659e-012	
CoarseR80	-6.63516e-012	-5.84823e-012	-5.26709e-012	-4.55757e-012	-3.82228e-012	-3.31719e-012	-2.6418e-012	-2.1497e-012	-1.54876e-012	-1.07525e-012	-5.73576e-013	-6.8654e-014	4.57565e-013	8.63629e-013	1.35073e-012	1.76349e-012	2.19462e-012	2.62915e-012	3.05035e-012	3.36874e-012	3.76764e-012	
CoarseR81	-4.64862e-012	-3.84442e-012	-3.22555e-012	-2.56303e-012	-1.89432e-012	-1.32991e-012	-7.39531e-013	-8.34693e-014	5.32103e-013	8.78253e-013	1.48156e-012	1.93933e-012	2.29439e-012	2.86369e-012	3.28653e-012	3.71252e-012	4.18491e-012	4.50985e-012	4.98843e-012	5.40951e-012	5.78822e-012	
CoarseR82	-2.77665e-012	-1.97735e-012	-1.27845e-012	-5.7653e-013	8.79161e-014	7.10577e-013	1.25422e-012	1.73899e-012	2.39407e-012	2.90409e-012	3.4603e-012	3.87032e-012	4.30918e-012	4.72504e-012	5.14437e-012	5.71602e-012	6.14127e-012	6.50733e-012	6.92105e-012	7.29391e-012	7.72968e-012	
CoarseR83	-8.35672e-013	-1.02456e-013	5.71576e-013	1.22733e-012	1.95031e-012	2.61263e-012	3.19545e-012	3.63325e-012	4.22198e-012	4.72841e-012	5.38682e-012	5.83674e-012	6.2281e-012	6.74676e-012	7.10001e-012	7.56262e-012	8.02829e-012	8.4705e-012	8.88042e-012	9.18771e-012	9.62078e-012	
CoarseR84	1.07639e-012	1.74385e-012	2.47566e-012	3.1275e-012	3.8464e-012	4.33727e-012	5.08428e-012	5.58106e-012	6.20927e-012	6.66944e-012	7.09319e-012	7.6018e-012	8.21924e-012	8.61002e-012	8.97792e-012	9.43716e-012	9.89912e-012	1.02749e-011	1.07705e-011	1.11358e-011	1.15655e-011	
CoarseR85	2.93464e-012	3.70208e-012	4.38962e-012	5.01865e-012	5.69073e-012	6.38919e-012	6.98289e-012	7.47604e-012	8.05679e-012	8.51356e-012	8.99527e-012	9.54442e-012	1.00513e-011	1.05005e-011	1.08647e-011	1.1302e-011	1.17785e-011	1.21344e-011	1.25367e-011	1.28983e-011	1.32628e-011	
CoarseR86	4.71644e-012	5.43745e-012	6.16405e-012	6.74392e-012	7.4547e-012	8.08828e-012	8.74134e-012	9.21115e-012	9.87021e-012	1.03045e-011	1.08887e-011	1.13896e-011	1.18749e-011	1.2259e-011	1.285e-011	1.324e-011	1.35891e-011	1.40034e-011	1.44021e-011	1.48043e-011	1.51215e-011	
CoarseR87	6.46327e-012	7.07355e-012	7.79675e-012	8.48002e-012	9.20757e-012	9.73088e-012	1.04672e-011	1.09533e-011	1.15455e-011	1.20816e-011	1.26186e-011	1.30728e-011	1.3599e-011	1.40412e-011	1.43987e-011	1.49541e-011	1.53615e-011	1.5711e-011	1.615e-011	1.65028e-011	1.68609e-011	
CoarseR88	8.19481e-012	8.95381e-012	9.56599e-012	1.02455e-011	1.09918e-011	1.15322e-011	1.20963e-011	1.27039e-011	1.33358e-011	1.38268e-011	1.43599e-011	1.47922e-011	1.55012e-011	1.57716e-011	1.62321e-011	1.66767e-011	1.71254e-011	1.74698e-011	1.7817e-011	1.81682e-011	1.85824e-011	
CoarseR89	9.91619e-012	1.05641e-011	1.12981e-011	1.19124e-011	1.26753e-011	1.31916e-011	1.38338e-011	1.43127e-011	1.49669e-011	1.5472e-011	1.60647e-011	1.65369e-011	1.69675e-011	1.75093e-011	1.79666e-011	1.84705e-011	1.87916e-011	1.92129e-011	1.96004e-011	1.99018e-011	2.02531e-011	
CoarseR90	1.16247e-011	1.23114e-011	1.30231e-011	1.3695e-011	1.43465e-011	1.4859e-011	1.55231e-011	1.61671e-011	1.66866e-011	1.72325e-011	1.77582e-011	1.82902e-011	1.87805e-011	1.92555e-011	1.97095e-011	2.01486e-011	2.04819e-011	2.0883e-011	2.14187e-011	2.17166e-011	2.20823e-011	
MinCout:	-6.8654e-014	CoarseR:	80	CoarseC:	51

	FineC0	FineC10	FineC20	FineC30	FineC40	FineC50	FineC60	FineC70	FineC80	FineC90	FineC100	FineC110	FineC120	FineC130	FineC140	FineC150	FineC160	FineC170	FineC180	FineC190	FineC200	FineC210	FineC220	FineC230	FineC240	FineC250	
FineR0	-6.44791e-011	-5.21903e-011	-4.55388e-011	-4.08455e-011	-3.72492e-011	-3.4548e-011	-3.24584e-011	-3.09396e-011	-2.94229e-011	-2.83378e-011	-2.74222e-011	-2.66331e-011	-2.60574e-011	-2.53618e-011	-2.49196e-011	-2.44598e-011	-2.4088e-011	-2.37162e-011	-2.34343e-011	-2.31518e-011	-2.28979e-011	-2.26607e-011	-2.25291e-011	-2.23207e-011	-2.21743e-011	-2.20718e-011	
FineR10	-5.16259e-011	-3.95348e-011	-3.27778e-011	-2.80745e-011	-2.45515e-011	-2.18933e-011	-1.97641e-011	-1.81976e-011	-1.67925e-011	-1.57768e-011	-1.48032e-011	-1.41218e-011	-1.34466e-011	-1.28743e-011	-1.23699e-011	-1.19543e-011	-1.15373e-011	-1.12709e-011	-1.09251e-011	-1.06407e-011	-1.05067e-011	-1.02494e-011	-1.01606e-011	-9.90411e-012	-9.75431e-012	-9.64902e-012	
FineR20	-4.70034e-011	-3.48505e-011	-2.81427e-011	-2.32361e-011	-1.98972e-011	-1.71531e-011	-1.50331e-011	-1.34549e-011	-1.20324e-011	-1.10028e-011	-1.00333e-011	-9.33792e-012	-8.68265e-012	-8.03172e-012	-7.60795e-012	-7.25371e-012	-6.88104e-012	-6.55263e-012	-6.28488e-012	-5.99996e-012	-5.80359e-012	-5.60758e-012	-5.45609e-012	-5.26056e-012	-5.09242e-012	-4.94113e-012	
FineR30	-4.44859e-011	-3.24966e-011	-2.57082e-011	-2.07779e-011	-1.73896e-011	-1.47569e-011	-1.25417e-011	-1.09258e-011	-9.54919e-012	-8.52283e-012	-7.5559e-012	-6.8623e-012	-6.14656e-012	-5.55866e-012	-5.17967e-012	-4.72089e-012	-4.40986e-012	-4.03707e-012	-3.81389e-012	-3.5288e-012	-3.28762e-012	-3.13591e-012	-2.93933e-012	-2.7872e-012	-2.63551e-012	-2.52853e-012	
FineR40	-4.30318e-011	-3.09573e-011	-2.42592e-011	-1.93614e-011	-1.58145e-011	-1.31871e-011	-1.1036e-011	-9.46761e-012	-8.13562e-012	-7.0256e-012	-6.10279e-012	-5.30478e-012	-4.69545e-012	-4.10826e-012	-3.56284e-012	-3.20946e-012	-2.83741e-012	-2.52608e-012	-2.28594e-012	-2.01773e-012	-1.82097e-012	-1.57983e-012	-1.47235e-012	-1.32049e-012	-1.12326e-012	-1.01592e-012	
FineR50	-4.21204e-011	-3.00259e-011	-2.32768e-011	-1.84281e-011	-1.48423e-011	-1.22196e-011	-1.01148e-011	-8.40158e-012	-7.07246e-012	-6.00621e-012	-5.0847e-012	-4.28767e-012	-3.679e-012	-3.09241e-012	-2.60925e-012	-2.19434e-012	-1.82252e-012	-1.51179e-012	-1.27118e-012	-9.41676e-013	-8.06689e-013	-5.48313e-013	-4.5742e-013	-3.05321e-013	-1.08008e-013	-4.30439e-016	
FineR60	-4.15138e-011	-2.937e-011	-2.26145e-011	-1.78495e-011	-1.41047e-011	-1.14848e-011	-9.38056e-012	-7.77384e-012	-6.34136e-012	-5.31949e-012	-4.39899e-012	-3.60276e-012	-2.95071e-012	-2.4263e-012	-1.92542e-012	-1.46711e-012	-1.09542e-012	-8.28937e-013	-5.88522e-013	-2.59151e-013	-6.23523e-014	1.34458e-013	3.31325e-013	4.22142e-013	5.30071e-013	7.27294e-013	
FineR70	-4.10476e-011	-2.89127e-011	-2.20733e-011	-1.72973e-011	-1.36362e-011	-1.09771e-011	-8.81453e-012	-7.20773e-012	-5.88138e-012	-4.77481e-012	-3.8981e-012	-3.10227e-012	-2.49401e-012	-1.92639e-012	-1.36409e-012	-9.67458e-013	-6.39961e-013	-2.67634e-013	-4.46784e-014	2.4049e-013	4.98879e-013	6.3398e-013	7.8645e-013	9.83595e-013	1.13621e-012	1.18254e-012	
FineR80	-4.06936e-011	-2.85604e-011	-2.16642e-011	-1.68919e-011	-1.32333e-011	-1.05762e-011	-8.4149e-012	-6.82962e-012	-5.5028e-012	-4.42067e-012	-3.52036e-012	-2.76798e-012	-2.05508e-012	-1.46948e-012	-1.0309e-012	-6.34437e-013	-2.62968e-013	6.52536e-014	3.94171e-013	6.34874e-013	8.31481e-013	1.07304e-012	1.16381e-012	1.37813e-012	1.57558e-012	1.68356e-012	
FineR90	-4.03371e-011	-2.8313e-011	-2.13812e-011	-1.66118e-011	-1.29553e-011	-1.03419e-011	-8.20173e-012	-6.5351e-012	-5.16731e-012	-4.10434e-012	-3.1858e-012	-2.39056e-012	-1.7829e-012	-1.19749e-012	-6.97232e-013	-3.00865e-013	7.0531e-014	3.98734e-013	6.6579e-013	9.68309e-013	1.1034e-012	1.34474e-012	1.49737e-012	1.71176e-012	1.84744e-012	1.9555e-012	
FineR100	-4.0117e-011	-2.80962e-011	-2.11663e-011	-1.64366e-011	-1.28238e-011	-1.00659e-011	-8.03133e-012	-6.32395e-012	-4.99857e-012	-3.87434e-012	-2.9748e-012	-2.16148e-012	-1.55406e-012	-1.03071e-012	-4.86799e-013	-7.27888e-014	2.98472e-013	5.64971e-013	8.93543e-013	1.13442e-012	1.37533e-012	1.57239e-012	1.78682e-012	1.92226e-012	2.09202e-012	2.18342e-012	
FineR110	-4.00001e-011	-2.7881e-011	-2.103e-011	-1.62023e-011	-1.25493e-011	-9.93681e-012	-7.79909e-012	-6.09264e-012	-4.78779e-012	-3.66366e-012	-2.78857e-012	-1.99407e-012	-1.38701e-012	-7.58441e-013	-2.58381e-013	9.38437e-014	4.65001e-013	7.93048e-013	1.01582e-012	1.34506e-012	1.542e-012	1.69441e-012	1.9361e-012	2.08901e-012	2.24144e-012	2.34957e-012	
FineR120	-3.98522e-011	-2.78041e-011	-2.08164e-011	-1.6132e-011	-1.24393e-011	-9.7876e-012	-7.63033e-012	-5.94374e-012	-4.61993e-012	-3.53864e-012	-2.63978e-012	-1.78349e-012	-1.19475e-012	-6.09576e-013	-1.53242e-013	3.0448e-013	6.31729e-013	1.00379e-012	1.28842e-012	1.52904e-012	1.70833e-012	1.9056e-012	2.10241e-012	2.25532e-012	2.30175e-012	2.5782e-012	
FineR130	-3.97399e-011	-2.76924e-011	-2.07696e-011	-1.60232e-011	-1.23315e-011	-9.68049e-012	-7.48132e-012	-5.8792e-012	-4.51327e-012	-3.37114e-012	-2.53428e-012	-1.7399e-012	-1.0711e-012	-4.86228e-013	-4.81837e-014	4.09718e-013	8.42562e-013	1.04721e-012	1.28746e-012	1.57249e-012	1.81359e-012	2.01071e-012	2.20772e-012	2.29885e-012	2.46873e-012	2.62182e-012	
FineR140	-3.96901e-011	-2.75186e-011	-2.05977e-011	-1.59155e-011	-1.22244e-011	-9.61423e-012	-7.47835e-012	-5.77325e-012	-4.40752e-012	-3.32735e-012	-2.40987e-012	-1.67768e-012	-9.65775e-013	-3.80952e-013	1.33174e-014	4.7094e-013	8.41828e-013	1.10815e-012	1.45433e-012	1.73937e-012	1.98047e-012	2.11598e-012	2.31301e-012	2.421e-012	2.57409e-012	2.68228e-012	
FineR150	-3.96427e-011	-2.74724e-011	-2.06296e-011	-1.58078e-011	-1.21173e-011	-9.50934e-012	-7.37343e-012	-5.70994e-012	-4.34465e-012	-3.22175e-012	-2.36621e-012	-1.5723e-012	-9.03974e-013	-3.37418e-013	1.1856e-013	5.14336e-013	9.47273e-013	1.21336e-012	1.55955e-012	1.78295e-012	1.96226e-012	2.17658e-012	2.4183e-012	2.57113e-012	2.61763e-012	2.78766e-012	
FineR160	-3.95711e-011	-2.74658e-011	-2.05841e-011	-1.57393e-011	-1.21144e-011	-9.44362e-012	-7.37047e-012	-5.60425e-012	-4.3009e-012	-3.1588e-012	-2.30401e-012	-1.5721e-012	-9.03838e-013	-2.75789e-013	2.23893e-013	5.75856e-013	9.46664e-013	1.31871e-012	1.60311e-012	1.84368e-012	2.08514e-012	2.2202e-012	2.37292e-012	2.58747e-012	2.72313e-012	2.83138e-012	
FineR170	-3.95238e-011	-2.74544e-011	-2.05173e-011	-1.57983e-011	-1.20081e-011	-9.39939e-012	-7.26465e-012	-5.5604e-012	-4.23748e-012	-3.22009e-012	-2.26041e-012	-1.46673e-012	-7.98497e-013	-2.32282e-013	2.67396e-013	6.37194e-013	9.90312e-013	1.31826e-012	1.66442e-012	1.90495e-012	2.08414e-012	2.28139e-012	2.41654e-012	2.63113e-012	2.72245e-012	2.93689e-012	
FineR180	-3.95796e-011	-2.74148e-011	-2.04718e-011	-1.57562e-011	-1.20677e-011	-9.39718e-012	-7.263e-012	-5.55917e-012	-4.19447e-012	-3.11505e-012	-2.26003e-012	-1.46654e-012	-7.55061e-013	-1.70572e-013	2.67177e-013	6.80869e-013	1.05174e-012	1.36177e-012	1.64629e-012	1.93132e-012	2.08372e-012	2.32498e-012	2.47771e-012	2.63063e-012	2.82792e-012	2.9362e-012	
FineR190	-3.95079e-011	-2.74083e-011	-2.04933e-011	-1.56906e-011	-1.2003e-011	-9.35518e-012	-7.26172e-012	-5.55821e-012	-4.13178e-012	-3.07152e-012	-2.11178e-012	-1.423e-012	-7.54913e-013	-1.88833e-013	3.10754e-013	6.62647e-013	1.03355e-012	1.36146e-012	1.70759e-012	1.93092e-012	2.1895e-012	2.38616e-012	2.52195e-012	2.67426e-012	2.8274e-012	2.93566e-012	
FineR200	-3.95322e-011	-2.74034e-011	-2.04264e-011	-1.57085e-011	-1.20211e-011	-9.41532e-012	-7.15721e-012	-5.51535e-012	-4.13107e-012	-3.07102e-012	-2.11146e-012	-1.42301e-012	-8.16735e-013	-2.32446e-013	2.6695e-013	7.24345e-013	1.13909e-012	1.4054e-012	1.68979e-012	2.0365e-012	2.18892e-012	2.36855e-012	2.56554e-012	2.71854e-012	2.82672e-012	2.97988e-012	
FineR210	-3.95255e-011	-2.73638e-011	-2.04228e-011	-1.56675e-011	-1.19585e-011	-9.31099e-012	-7.21775e-012	-5.5144e-012	-4.15007e-012	-3.0086e-012	-2.17295e-012	-1.42282e-012	-7.54887e-013	-1.27129e-013	3.10523e-013	7.67926e-013	1.077e-012	1.46676e-012	1.68943e-012	1.92997e-012	2.12685e-012	2.36808e-012	2.56505e-012	2.65622e-012	2.87104e-012	2.97933e-012	
FineR220	-3.94872e-011	-2.7359e-011	-2.04443e-011	-1.56647e-011	-1.19564e-011	-9.30933e-012	-7.21648e-012	-5.51344e-012	-4.14936e-012	-3.13234e-012	-2.12978e-012	-1.42263e-012	-7.73204e-013	-1.88903e-013	3.1051e-013	7.23961e-013	1.077e-012	1.46644e-012	1.68907e-012	1.97403e-012	2.17097e-012	2.36762e-012	2.56505e-012	2.70049e-012	2.8705e-012	2.97879e-012	
FineR230	-3.95187e-011	-2.74211e-011	-2.0481e-011	-1.57029e-011	-1.19773e-011	-9.30766e-012	-7.21648e-012	-5.47086e-012	-4.10655e-012	-3.02741e-012	-2.11077e-012	-1.37931e-012	-7.2975e-013	-1.88938e-013	2.92357e-013	7.67725e-013	1.07674e-012	1.40462e-012	1.73306e-012	2.01809e-012	2.17053e-012	2.41179e-012	2.56456e-012	2.65571e-012	2.82567e-012	3.02313e-012	
FineR240	-3.95769e-011	-2.74163e-011	-2.05038e-011	-1.56618e-011	-1.19752e-011	-9.37e-012	-7.17417e-012	-5.51248e-012	-4.14866e-012	-3.08883e-012	-2.12946e-012	-1.37912e-012	-7.73135e-013	-1.88938e-013	2.48567e-013	7.05835e-013	1.05891e-012	1.34264e-012	1.68871e-012	2.01767e-012	2.15282e-012	2.36716e-012	2.60877e-012	2.6552e-012	2.86997e-012	2.97824e-012	
FineR250	-3.96012e-011	-2.73767e-011	-2.05406e-011	-1.57218e-011	-1.19752e-011	-9.36833e-012	-7.17291e-012	-5.53198e-012	-4.10586e-012	-3.13132e-012	-2.17229e-012	-1.33581e-012	-7.73066e-013	-1.88972e-013	2.9223e-013	6.87756e-013	1.05864e-012	1.38655e-012	1.73269e-012	1.97322e-012	2.1701e-012	2.41132e-012	2.56407e-012	2.69945e-012	2.8078e-012	2.96094e-012	
MinCout:	-4.30439e-016	FineR:	50	FineC:	250

	FineC120	FineC121	FineC122	FineC123	FineC124	FineC125	FineC126	FineC127	FineC128	FineC129	FineC130	FineC131	FineC132	FineC133	FineC134	FineC135	FineC136	FineC137	FineC138	FineC139	FineC140	
FineR170	-7.98497e-013	-7.73427e-013	-7.29922e-013	-6.86395e-013	-5.81092e-013	-5.37525e-013	-5.55752e-013	-4.6858e-013	-3.81335e-013	-4.24922e-013	-2.94022e-013	-1.88553e-013	-1.44802e-013	-1.62853e-013	-5.73272e-014	-5.71704e-014	-1.34419e-014	7.40857e-014	1.79681e-013	1.61761e-013	1.61974e-013	
FineR171	-7.98497e-013	-7.73427e-013	-7.29922e-013	-6.86395e-013	-5.81092e-013	-5.99344e-013	-5.55752e-013	-4.6857e-013	-4.24922e-013	-3.37734e-013	-2.32282e-013	-1.88553e-013	-1.44893e-013	-1.01121e-013	-5.73272e-014	-5.72671e-014	3.02265e-014	1.35804e-013	1.17859e-013	1.61761e-013	2.23685e-013	
FineR172	-8.60314e-013	-7.73427e-013	-6.68159e-013	-6.24637e-013	-5.37556e-013	-5.558e-013	-4.94001e-013	-3.63257e-013	-3.63179e-013	-3.37734e-013	-2.32282e-013	-1.88553e-013	-8.30726e-014	-1.01121e-013	-5.73272e-014	-1.361e-014	9.19507e-014	7.39801e-014	1.17859e-013	2.23477e-013	2.67396e-013	
FineR173	-8.16909e-013	-7.73427e-013	-6.86409e-013	-5.81112e-013	-5.37556e-013	-5.558e-013	-5.12196e-013	-4.06825e-013	-4.2492e-013	-2.75988e-013	-2.75907e-013	-2.32197e-013	-1.44802e-013	-1.44802e-013	-5.73272e-014	-1.361e-014	3.02265e-014	1.35804e-013	1.17859e-013	1.17968e-013	2.05571e-013	
FineR174	-8.60314e-013	-7.73358e-013	-6.68102e-013	-5.81112e-013	-5.37556e-013	-5.37556e-013	-4.50446e-013	-4.06825e-013	-3.19593e-013	-2.5778e-013	-2.32282e-013	-1.26819e-013	-1.44893e-013	-1.01121e-013	-5.73272e-014	-5.73272e-014	3.02265e-014	1.35804e-013	1.79581e-013	2.23477e-013	2.05571e-013	
FineR175	-7.55061e-013	-8.16852e-013	-6.68102e-013	-5.81112e-013	-5.99381e-013	-5.558e-013	-4.50446e-013	-4.06825e-013	-3.63181e-013	-3.19593e-013	-2.75907e-013	-1.26857e-013	-8.31189e-014	-1.44802e-013	-1.19159e-013	-1.361e-014	3.02265e-014	9.20449e-014	7.40857e-014	1.79681e-013	1.61761e-013	
FineR176	-7.55061e-013	-7.73358e-013	-6.68102e-013	-6.86409e-013	-5.3762e-013	-5.37556e-013	-4.50446e-013	-4.06825e-013	-3.63181e-013	-2.76006e-013	-2.75907e-013	-1.70466e-013	-1.44893e-013	-1.44802e-013	-3.93038e-014	-1.361e-014	-1.35104e-014	1.17657e-013	1.35804e-013	2.23477e-013	1.61761e-013	
FineR177	-7.55061e-013	-7.11592e-013	-6.68102e-013	-6.24588e-013	-5.99381e-013	-4.94045e-013	-4.50446e-013	-4.06825e-013	-3.63181e-013	-3.19593e-013	-2.75907e-013	-1.70466e-013	-1.01267e-013	-1.01121e-013	-1.01121e-013	-5.73272e-014	4.82109e-014	7.39801e-014	7.40857e-014	2.23372e-013	2.6729e-013	
FineR178	-7.55061e-013	-7.73358e-013	-6.68102e-013	-6.86409e-013	-5.99346e-013	-5.37556e-013	-4.50446e-013	-3.63258e-013	-3.63257e-013	-3.19593e-013	-2.32309e-013	-1.88676e-013	-1.44936e-013	-1.01173e-013	-3.93038e-014	-5.73272e-014	3.01496e-014	7.38948e-014	1.35804e-013	2.23372e-013	2.23477e-013	
FineR179	-8.16832e-013	-7.73358e-013	-6.68102e-013	-6.24588e-013	-5.99346e-013	-5.37556e-013	-4.50431e-013	-4.06818e-013	-3.81429e-013	-2.76006e-013	-2.32309e-013	-1.26857e-013	-1.44936e-013	-1.01173e-013	-5.74839e-014	-1.36785e-014	9.18708e-014	7.38948e-014	1.79484e-013	2.23372e-013	2.0546e-013	
FineR180	-7.9846e-013	-7.11592e-013	-6.68102e-013	-6.86409e-013	-5.37588e-013	-5.37556e-013	-4.50431e-013	-4.68641e-013	-3.19681e-013	-2.76006e-013	-1.70572e-013	-1.88676e-013	-1.44936e-013	-1.01173e-013	-5.74839e-014	4.80482e-014	9.18708e-014	7.38948e-014	1.79484e-013	1.61547e-013	2.67177e-013	
FineR181	-7.55061e-013	-7.11592e-013	-6.68156e-013	-6.24646e-013	-5.37588e-013	-5.37556e-013	-4.50516e-013	-3.63334e-013	-3.19681e-013	-2.76006e-013	-2.32394e-013	-1.88676e-013	-8.32012e-014	-1.01267e-013	-5.74839e-014	4.80482e-014	3.0047e-014	1.35619e-013	1.79484e-013	2.23269e-013	2.67177e-013	
FineR182	-7.54987e-013	-7.73418e-013	-6.68156e-013	-6.24646e-013	-5.37588e-013	-4.94021e-013	-4.06963e-013	-4.06898e-013	-2.76088e-013	-2.14264e-013	-2.32394e-013	-1.88676e-013	-1.44936e-013	-1.01267e-013	-5.74839e-014	4.80482e-014	3.0047e-014	7.38948e-014	1.79484e-013	1.61547e-013	2.67177e-013	
FineR183	-7.11579e-013	-7.29928e-013	-6.24655e-013	-5.81133e-013	-5.37588e-013	-4.94021e-013	-4.505e-013	-4.06891e-013	-3.19681e-013	-2.76006e-013	-1.70572e-013	-1.88676e-013	-8.32012e-014	-1.01267e-013	-5.74839e-014	4.80482e-014	3.0047e-014	1.35619e-013	1.79484e-013	2.23269e-013	2.67177e-013	
FineR184	-7.11579e-013	-7.73418e-013	-6.24655e-013	-5.81133e-013	-4.94088e-013	-4.94088e-013	-4.06963e-013	-3.63334e-013	-3.19681e-013	-2.76088e-013	-1.70648e-013	-1.26936e-013	-8.32012e-014	-1.01267e-013	4.24819e-015	4.80482e-014	9.17766e-014	1.79287e-013	1.79484e-013	2.23269e-013	2.67177e-013	
FineR185	-7.11579e-013	-7.29928e-013	-6.24655e-013	-5.81133e-013	-5.37588e-013	-4.94021e-013	-4.505e-013	-4.06891e-013	-3.19681e-013	-2.14264e-013	-2.32394e-013	-1.4507e-013	-3.95837e-014	-1.01267e-013	4.24819e-015	4.80482e-014	3.0047e-014	1.35619e-013	1.79484e-013	2.66957e-013	2.67177e-013	
FineR186	-6.49808e-013	-6.68154e-013	-6.24655e-013	-5.81133e-013	-5.37588e-013	-4.94021e-013	-4.505e-013	-3.63334e-013	-3.19681e-013	-2.14264e-013	-2.32394e-013	-1.4507e-013	-8.32012e-014	-1.01267e-013	-5.74839e-014	4.80482e-014	9.17766e-014	1.35619e-013	1.17657e-013	2.23269e-013	2.67177e-013	
FineR187	-7.7341e-013	-6.68154e-013	-6.24655e-013	-5.81133e-013	-4.7583e-013	-4.5057e-013	-4.505e-013	-3.63334e-013	-3.19681e-013	-2.76088e-013	-2.32394e-013	-1.26936e-013	-3.95837e-014	-1.01267e-013	4.24819e-015	4.80482e-014	9.17766e-014	1.35619e-013	1.79384e-013	2.66957e-013	2.67177e-013	
FineR188	-7.7341e-013	-6.68154e-013	-6.24655e-013	-5.81133e-013	-5.37588e-013	-5.55849e-013	-4.505e-013	-4.06891e-013	-3.19681e-013	-2.76088e-013	-2.32394e-013	-1.26936e-013	-3.95837e-014	-1.01267e-013	-1.38466e-014	-1.37782e-014	9.17766e-014	1.35619e-013	2.23164e-013	2.23269e-013	2.67177e-013	
FineR189	-8.16812e-013	-7.29928e-013	-6.24655e-013	-5.81133e-013	-5.37652e-013	-4.94088e-013	-4.06963e-013	-4.06891e-013	-3.19681e-013	-2.76088e-013	-2.3242e-013	-8.33298e-014	-1.01412e-013	-1.01267e-013	4.24819e-015	-1.37782e-014	3.0047e-014	1.79287e-013	1.61334e-013	2.05235e-013	3.10876e-013	
FineR190	-8.16812e-013	-6.68154e-013	-6.24655e-013	-5.81133e-013	-5.37588e-013	-4.94088e-013	-4.505e-013	-4.06891e-013	-3.19681e-013	-2.14285e-013	-1.88799e-013	-1.4507e-013	-1.01412e-013	-1.01267e-013	4.24819e-015	-1.37782e-014	3.0047e-014	1.79287e-013	1.61334e-013	2.66957e-013	2.67177e-013	
MinCout:	4.24819e-015	FineR:	184	FineC:	134

