	CoarseC0	CoarseC10	CoarseC20	CoarseC30	CoarseC40	CoarseC50	CoarseC60	CoarseC70	CoarseC80	CoarseC90	CoarseC100	CoarseC110	CoarseC120	CoarseC130	CoarseC140	CoarseC150	CoarseC160	CoarseC170	CoarseC180	CoarseC190	CoarseC200	CoarseC210	CoarseC220	CoarseC230	CoarseC240	CoarseC250	
CoarseR0	-4.90555e-010	-4.62006e-010	-4.42659e-010	-4.27371e-010	-4.15503e-010	-4.0673e-010	-3.99781e-010	-3.94564e-010	-3.90272e-010	-3.87404e-010	-3.84997e-010	-3.83497e-010	-3.82272e-010	-3.8171e-010	-3.81455e-010	-3.81338e-010	-3.81828e-010	-3.83387e-010	-3.85115e-010	-3.86641e-010	-3.881e-010	-3.8961e-010	-3.90749e-010	-3.91723e-010	-3.92585e-010	-3.93013e-010	
CoarseR10	-3.64027e-010	-3.38815e-010	-3.21408e-010	-3.08146e-010	-2.97536e-010	-2.89365e-010	-2.83007e-010	-2.78084e-010	-2.74197e-010	-2.71643e-010	-2.69926e-010	-2.6877e-010	-2.69292e-010	-2.70389e-010	-2.72175e-010	-2.73875e-010	-2.75861e-010	-2.78052e-010	-2.80187e-010	-2.82232e-010	-2.84499e-010	-2.86443e-010	-2.8845e-010	-2.9019e-010	-2.91841e-010	-2.93366e-010	
CoarseR20	-2.75498e-010	-2.52496e-010	-2.36917e-010	-2.24445e-010	-2.14645e-010	-2.06879e-010	-2.00921e-010	-1.96415e-010	-1.93211e-010	-1.9208e-010	-1.91893e-010	-1.92478e-010	-1.93469e-010	-1.94929e-010	-1.96938e-010	-1.99139e-010	-2.01544e-010	-2.04286e-010	-2.07081e-010	-2.09896e-010	-2.12909e-010	-2.15842e-010	-2.1879e-010	-2.21664e-010	-2.24756e-010	-2.27648e-010	
CoarseR30	-2.0944e-010	-1.88132e-010	-1.73278e-010	-1.61626e-010	-1.52177e-010	-1.44709e-010	-1.395e-010	-1.36532e-010	-1.34591e-010	-1.33941e-010	-1.33931e-010	-1.34719e-010	-1.36175e-010	-1.38027e-010	-1.40314e-010	-1.43208e-010	-1.4613e-010	-1.4972e-010	-1.53467e-010	-1.57203e-010	-1.6143e-010	-1.65796e-010	-1.70701e-010	-1.76532e-010	-1.81914e-010	-1.86565e-010	
CoarseR40	-1.59239e-010	-1.39062e-010	-1.24719e-010	-1.13334e-010	-1.04321e-010	-9.83325e-011	-9.41405e-011	-9.12885e-011	-8.9537e-011	-8.90211e-011	-8.93452e-011	-9.03047e-011	-9.22052e-011	-9.45002e-011	-9.74767e-011	-1.00817e-010	-1.04664e-010	-1.09343e-010	-1.14282e-010	-1.19865e-010	-1.26978e-010	-1.3417e-010	-1.40543e-010	-1.46347e-010	-1.51381e-010	-1.55934e-010	
CoarseR50	-1.19906e-010	-1.00374e-010	-8.63924e-011	-7.56909e-011	-6.77848e-011	-6.20021e-011	-5.79117e-011	-5.51099e-011	-5.35969e-011	-5.32433e-011	-5.37884e-011	-5.53618e-011	-5.76479e-011	-6.04119e-011	-6.42355e-011	-6.85398e-011	-7.35132e-011	-7.97629e-011	-8.80945e-011	-9.62999e-011	-1.0394e-010	-1.10645e-010	-1.16698e-010	-1.22139e-010	-1.26995e-010	-1.31367e-010	
CoarseR60	-8.8467e-011	-6.90852e-011	-5.57332e-011	-4.56766e-011	-3.80442e-011	-3.23135e-011	-2.82341e-011	-2.57173e-011	-2.43026e-011	-2.41753e-011	-2.51303e-011	-2.69215e-011	-2.96881e-011	-3.3237e-011	-3.80308e-011	-4.37857e-011	-5.16838e-011	-6.13192e-011	-7.00734e-011	-7.79526e-011	-8.49313e-011	-9.12168e-011	-9.68866e-011	-1.02048e-010	-1.06646e-010	-1.10761e-010	
CoarseR70	-6.31392e-011	-4.37964e-011	-3.10402e-011	-2.1059e-011	-1.32761e-011	-7.71212e-012	-3.81818e-012	-1.48653e-012	-1.4281e-013	-3.32619e-013	-1.73198e-012	-3.96901e-012	-7.4211e-012	-1.19738e-011	-1.80046e-011	-2.74415e-011	-3.72289e-011	-4.6269e-011	-5.451e-011	-6.18037e-011	-6.86913e-011	-7.46587e-011	-8.00822e-011	-8.50191e-011	-8.95339e-011	-9.35452e-011	
CoarseR80	-4.20465e-011	-2.33485e-011	-1.03676e-011	-3.746e-013	7.29177e-012	1.28344e-011	1.66343e-011	1.89888e-011	1.99341e-011	1.94174e-011	1.77329e-011	1.47859e-011	1.07057e-011	4.6969e-012	-5.38838e-012	-1.55693e-011	-2.4738e-011	-3.32836e-011	-4.09323e-011	-4.78856e-011	-5.43015e-011	-5.99813e-011	-6.53244e-011	-7.0132e-011	-7.4545e-011	-7.83803e-011	
CoarseR90	-2.44849e-011	-6.11407e-012	6.8279e-012	1.71672e-011	2.47459e-011	3.02878e-011	3.39814e-011	3.60887e-011	3.68348e-011	3.61956e-011	3.40567e-011	3.06434e-011	2.51195e-011	1.55462e-011	5.01125e-012	-4.67753e-012	-1.32996e-011	-2.1514e-011	-2.88239e-011	-3.56018e-011	-4.17074e-011	-4.7363e-011	-5.24722e-011	-5.70055e-011	-6.12304e-011	-6.50641e-011	
CoarseR100	-9.84704e-012	8.7903e-012	2.1595e-011	3.17577e-011	3.94722e-011	4.50177e-011	4.86457e-011	5.07134e-011	5.14089e-011	5.01014e-011	4.76184e-011	4.32055e-011	3.48354e-011	2.4445e-011	1.43264e-011	5.20529e-012	-2.97881e-012	-1.09042e-011	-1.80162e-011	-2.45902e-011	-3.04729e-011	-3.58884e-011	-4.09016e-011	-4.54628e-011	-4.95643e-011	-5.3275e-011	
CoarseR110	2.47114e-012	2.11404e-011	3.43429e-011	4.4412e-011	5.22169e-011	5.77465e-011	6.1267e-011	6.31752e-011	6.36456e-011	6.23281e-011	5.92234e-011	5.34237e-011	4.2734e-011	3.26087e-011	2.30898e-011	1.44538e-011	6.30381e-012	-1.13062e-012	-8.03956e-012	-1.43969e-011	-2.02035e-011	-2.54711e-011	-3.02361e-011	-3.47872e-011	-3.88174e-011	-4.24906e-011	
CoarseR120	1.28269e-011	3.18137e-011	4.48011e-011	5.51063e-011	6.29918e-011	6.84961e-011	7.20953e-011	7.38612e-011	7.42949e-011	7.26915e-011	6.91593e-011	6.04477e-011	4.99663e-011	4.05094e-011	3.12194e-011	2.27037e-011	1.50308e-011	7.64096e-012	1.01519e-012	-5.08374e-012	-1.08238e-011	-1.59636e-011	-2.07014e-011	-2.50192e-011	-2.90881e-011	-3.27453e-011	
CoarseR130	2.16415e-011	4.07163e-011	5.39131e-011	6.4162e-011	7.20702e-011	7.756e-011	8.1317e-011	8.31962e-011	8.33678e-011	8.16069e-011	7.712e-011	6.69551e-011	5.68509e-011	4.74738e-011	3.85979e-011	3.04761e-011	2.28753e-011	1.57515e-011	9.155e-012	3.34386e-012	-2.24881e-012	-7.34852e-012	-1.19855e-011	-1.63731e-011	-2.03619e-011	-2.39636e-011	
CoarseR140	2.88063e-011	4.80563e-011	6.13936e-011	7.1784e-011	7.98858e-011	8.55184e-011	8.92079e-011	9.11582e-011	9.13368e-011	8.92335e-011	8.34093e-011	7.31414e-011	6.3386e-011	5.43591e-011	4.57228e-011	3.77256e-011	3.03625e-011	2.33527e-011	1.69359e-011	1.10389e-011	5.64237e-012	6.40811e-013	-3.97025e-012	-8.26514e-012	-1.21812e-011	-1.57354e-011	
CoarseR150	3.48545e-011	5.4246e-011	6.77892e-011	7.84526e-011	8.63946e-011	9.22099e-011	9.61127e-011	9.82642e-011	9.85149e-011	9.62512e-011	8.88834e-011	7.8903e-011	6.94314e-011	6.07226e-011	5.23462e-011	4.46108e-011	3.73181e-011	3.05072e-011	2.41629e-011	1.8372e-011	1.29715e-011	8.12526e-012	3.50334e-012	-7.52571e-013	-4.64432e-012	-8.25467e-012	
CoarseR160	3.99587e-011	5.96098e-011	7.32026e-011	8.39445e-011	9.21672e-011	9.81171e-011	1.0209e-010	1.04396e-010	1.04583e-010	1.02332e-010	9.43242e-011	8.45749e-011	7.52575e-011	6.67617e-011	5.85089e-011	5.09e-011	4.37983e-011	3.70098e-011	3.07538e-011	2.50789e-011	1.97994e-011	1.47583e-011	1.02932e-011	5.94515e-012	2.15146e-012	-1.34203e-012	
CoarseR170	4.39068e-011	6.38151e-011	7.77207e-011	8.86253e-011	9.69881e-011	1.03061e-010	1.0719e-010	1.09557e-010	1.10069e-010	1.07764e-010	9.92916e-011	8.97335e-011	8.08378e-011	7.24295e-011	6.43207e-011	5.68833e-011	4.98007e-011	4.31848e-011	3.70243e-011	3.13744e-011	2.59113e-011	2.10888e-011	1.66265e-011	1.23512e-011	8.4529e-012	4.91999e-012	
CoarseR180	4.69737e-011	6.71716e-011	8.12739e-011	9.23054e-011	1.00944e-010	1.07287e-010	1.11704e-010	1.14225e-010	1.14766e-010	1.12591e-010	1.04006e-010	9.47294e-011	8.58376e-011	7.7616e-011	6.9684e-011	6.22885e-011	5.54745e-011	4.88274e-011	4.28436e-011	3.71382e-011	3.17696e-011	2.69014e-011	2.23302e-011	1.81992e-011	1.41921e-011	1.07206e-011	
CoarseR190	4.9375e-011	6.96687e-011	8.41539e-011	9.54592e-011	1.04225e-010	1.10945e-010	1.15407e-010	1.18158e-010	1.19008e-010	1.16852e-010	1.08446e-010	9.93384e-011	9.06729e-011	8.25224e-011	7.46423e-011	6.73886e-011	6.05389e-011	5.39429e-011	4.79473e-011	4.23918e-011	3.71021e-011	3.22587e-011	2.75973e-011	2.33596e-011	1.94326e-011	1.59276e-011	
CoarseR200	5.1139e-011	7.16959e-011	8.64305e-011	9.79084e-011	1.07004e-010	1.13877e-010	1.1869e-010	1.21615e-010	1.22737e-010	1.20841e-010	1.12625e-010	1.03741e-010	9.52247e-011	8.71444e-011	7.94772e-011	7.21691e-011	6.52846e-011	5.87204e-011	5.26656e-011	4.71134e-011	4.2004e-011	3.70792e-011	3.24494e-011	2.82448e-011	2.42398e-011	2.06799e-011	
CoarseR210	5.24232e-011	7.31745e-011	8.81394e-011	9.98546e-011	1.09153e-010	1.1625e-010	1.21345e-010	1.24464e-010	1.2574e-010	1.24274e-010	1.16585e-010	1.07753e-010	9.92787e-011	9.12464e-011	8.34849e-011	7.62796e-011	6.96014e-011	6.31238e-011	5.70482e-011	5.15129e-011	4.60908e-011	4.14227e-011	3.68018e-011	3.25461e-011	2.85996e-011	2.49898e-011	
CoarseR220	5.3188e-011	7.41768e-011	8.93816e-011	1.01379e-010	1.1091e-010	1.18121e-010	1.23545e-010	1.26876e-010	1.28492e-010	1.27345e-010	1.20076e-010	1.11422e-010	1.02929e-010	9.50875e-011	8.72985e-011	8.01074e-011	7.34558e-011	6.7013e-011	6.09395e-011	5.53209e-011	5.00247e-011	4.5227e-011	4.0577e-011	3.63343e-011	3.23586e-011	2.86251e-011	
CoarseR230	5.35736e-011	7.47611e-011	9.01884e-011	1.02443e-010	1.12226e-010	1.19719e-010	1.25232e-010	1.28899e-010	1.30699e-010	1.29928e-010	1.2335e-010	1.1465e-010	1.06384e-010	9.84669e-011	9.09588e-011	8.36364e-011	7.68927e-011	7.04172e-011	6.44122e-011	5.87403e-011	5.35444e-011	4.85846e-011	4.3988e-011	3.98066e-011	3.57771e-011	3.21103e-011	
CoarseR240	5.36655e-011	7.5231e-011	9.0727e-011	1.03186e-010	1.13083e-010	1.20914e-010	1.26661e-010	1.30606e-010	1.32555e-010	1.32166e-010	1.2625e-010	1.17723e-010	1.09414e-010	1.016e-010	9.39792e-011	8.67979e-011	8.00068e-011	7.35464e-011	6.74493e-011	6.19173e-011	5.66158e-011	5.16756e-011	4.7125e-011	4.27079e-011	3.87813e-011	3.49898e-011	
CoarseR250	5.33817e-011	7.5257e-011	9.09024e-011	1.03609e-010	1.13827e-010	1.2165e-010	1.2771e-010	1.31773e-010	1.34045e-010	1.33985e-010	1.28928e-010	1.20339e-010	1.12121e-010	1.04313e-010	9.66887e-011	8.94237e-011	8.2808e-011	7.60985e-011	7.01403e-011	6.454e-011	5.92172e-011	5.42409e-011	4.97235e-011	4.52857e-011	4.1288e-011	3.74895e-011	
MinCout:	-1.4281e-013	CoarseR:	70	CoarseC:	80

	CoarseC40	CoarseC41	CoarseC42	CoarseC43	CoarseC44	CoarseC45	CoarseC46	CoarseC47	CoarseC48	CoarseC49	CoarseC50	CoarseC51	CoarseC52	CoarseC53	CoarseC54	CoarseC55	CoarseC56	CoarseC57	CoarseC58	CoarseC59	CoarseC60	
CoarseR60	-3.79137e-011	-3.70899e-011	-3.65783e-011	-3.59342e-011	-3.52671e-011	-3.46915e-011	-3.40809e-011	-3.36029e-011	-3.2928e-011	-3.26088e-011	-3.20459e-011	-3.16589e-011	-3.10523e-011	-3.0718e-011	-3.03259e-011	-2.99017e-011	-2.94145e-011	-2.89883e-011	-2.86037e-011	-2.8305e-011	-2.79729e-011	
CoarseR61	-3.51799e-011	-3.45254e-011	-3.38126e-011	-3.32144e-011	-3.2678e-011	-3.20407e-011	-3.14968e-011	-3.09188e-011	-3.02901e-011	-2.98733e-011	-2.94207e-011	-2.90382e-011	-2.84762e-011	-2.8106e-011	-2.77181e-011	-2.72981e-011	-2.69186e-011	-2.64515e-011	-2.60073e-011	-2.57126e-011	-2.53257e-011	
CoarseR62	-3.2591e-011	-3.19001e-011	-3.13978e-011	-3.06556e-011	-3.01049e-011	-2.95344e-011	-2.89327e-011	-2.85231e-011	-2.79618e-011	-2.73405e-011	-2.68906e-011	-2.64081e-011	-2.59566e-011	-2.54394e-011	-2.52225e-011	-2.47277e-011	-2.43268e-011	-2.3889e-011	-2.35076e-011	-2.32801e-011	-2.28379e-011	
CoarseR63	-3.00218e-011	-2.92722e-011	-2.87135e-011	-2.80805e-011	-2.74901e-011	-2.69427e-011	-2.64335e-011	-2.59236e-011	-2.53634e-011	-2.485e-011	-2.43463e-011	-2.38236e-011	-2.33772e-011	-2.29523e-011	-2.25724e-011	-2.21603e-011	-2.16849e-011	-2.12699e-011	-2.09965e-011	-2.07727e-011	-2.03932e-011	
CoarseR64	-2.75615e-011	-2.68795e-011	-2.62202e-011	-2.5592e-011	-2.49871e-011	-2.43832e-011	-2.37901e-011	-2.34523e-011	-2.27943e-011	-2.23266e-011	-2.18441e-011	-2.13689e-011	-2.08219e-011	-2.04459e-011	-2.01331e-011	-1.96654e-011	-1.92537e-011	-1.88425e-011	-1.84097e-011	-1.819e-011	-1.78737e-011	
CoarseR65	-2.4942e-011	-2.42647e-011	-2.37763e-011	-2.29862e-011	-2.23418e-011	-2.19504e-011	-2.1301e-011	-2.0844e-011	-2.02076e-011	-1.97453e-011	-1.92673e-011	-1.89021e-011	-1.84028e-011	-1.7882e-011	-1.75289e-011	-1.71095e-011	-1.66422e-011	-1.62349e-011	-1.59257e-011	-1.56499e-011	-1.52784e-011	
CoarseR66	-2.2513e-011	-2.17347e-011	-2.11456e-011	-2.0571e-011	-1.9994e-011	-1.9398e-011	-1.88749e-011	-1.83596e-011	-1.76643e-011	-1.73306e-011	-1.67161e-011	-1.64183e-011	-1.58162e-011	-1.54672e-011	-1.51624e-011	-1.4642e-011	-1.42837e-011	-1.37754e-011	-1.33957e-011	-1.3121e-011	-1.28161e-011	
CoarseR67	-2.02544e-011	-1.94801e-011	-1.87913e-011	-1.80961e-011	-1.75678e-011	-1.70372e-011	-1.63961e-011	-1.60517e-011	-1.54057e-011	-1.4908e-011	-1.43151e-011	-1.40216e-011	-1.33624e-011	-1.31231e-011	-1.27172e-011	-1.23216e-011	-1.18622e-011	-1.14025e-011	-1.10417e-011	-1.07737e-011	-1.03502e-011	
CoarseR68	-1.7732e-011	-1.71732e-011	-1.64887e-011	-1.57116e-011	-1.51877e-011	-1.45984e-011	-1.40233e-011	-1.35345e-011	-1.2998e-011	-1.25924e-011	-1.1961e-011	-1.15647e-011	-1.10776e-011	-1.05693e-011	-1.03781e-011	-9.88119e-012	-9.42595e-012	-9.07531e-012	-8.67613e-012	-8.45425e-012	-8.0524e-012	
CoarseR69	-1.53998e-011	-1.47204e-011	-1.41446e-011	-1.34779e-011	-1.27462e-011	-1.22671e-011	-1.1654e-011	-1.12744e-011	-1.06804e-011	-1.02344e-011	-9.71278e-012	-9.3207e-012	-8.73189e-012	-8.39587e-012	-7.99559e-012	-7.54742e-012	-7.14094e-012	-6.74932e-012	-6.39877e-012	-6.13584e-012	-5.78255e-012	
CoarseR70	-1.31391e-011	-1.24202e-011	-1.17437e-011	-1.11868e-011	-1.06276e-011	-1.00031e-011	-9.41804e-012	-9.0263e-012	-8.39192e-012	-7.98562e-012	-7.38769e-012	-7.0628e-012	-6.47774e-012	-6.19068e-012	-5.73343e-012	-5.41276e-012	-4.79686e-012	-4.45403e-012	-4.15312e-012	-3.89429e-012	-3.54481e-012	
CoarseR71	-1.09274e-011	-1.02128e-011	-9.5403e-012	-8.92549e-012	-8.41497e-012	-7.90015e-012	-7.27636e-012	-6.738e-012	-6.10686e-012	-5.73141e-012	-5.26246e-012	-4.7729e-012	-4.29799e-012	-3.97057e-012	-3.57984e-012	-3.20203e-012	-2.69765e-012	-2.25132e-012	-1.86351e-012	-1.67128e-012	-1.26257e-012	
CoarseR72	-8.74457e-012	-7.99197e-012	-7.36634e-012	-6.66876e-012	-6.09911e-012	-5.58948e-012	-5.07549e-012	-4.60356e-012	-3.97696e-012	-3.43643e-012	-3.03375e-012	-2.6553e-012	-2.1396e-012	-1.75462e-012	-1.35033e-012	-9.31566e-013	-4.3099e-013	-5.02678e-014	2.8774e-013	4.93707e-013	9.87059e-013	
CoarseR73	-6.63082e-012	-5.88247e-012	-5.21681e-012	-4.56752e-012	-3.89616e-012	-3.32697e-012	-2.77366e-012	-2.45637e-012	-1.89604e-012	-1.4037e-012	-7.91895e-013	-4.61629e-013	1.12049e-013	4.31168e-013	8.14545e-013	1.24579e-012	1.72586e-012	2.11828e-012	2.39089e-012	2.59152e-012	3.03927e-012	
CoarseR74	-4.50544e-012	-3.80536e-012	-3.18794e-012	-2.49864e-012	-1.95682e-012	-1.3288e-012	-6.72516e-013	-3.59336e-013	2.59669e-013	6.23438e-013	1.18678e-012	1.61949e-012	2.08252e-012	2.39746e-012	2.83963e-012	3.26712e-012	3.8051e-012	4.11579e-012	4.4911e-012	4.79592e-012	5.13098e-012	
CoarseR75	-2.47556e-012	-1.67203e-012	-1.18447e-012	-5.86894e-013	1.20298e-013	6.81316e-013	1.22669e-012	1.74971e-012	2.32037e-012	2.72497e-012	3.22176e-012	3.65084e-012	4.21717e-012	4.59037e-012	4.92065e-012	5.28234e-012	5.8179e-012	6.20309e-012	6.52945e-012	6.76791e-012	7.26853e-012	
CoarseR76	-3.89815e-013	3.66578e-013	9.13376e-013	1.53086e-012	2.12745e-012	2.74784e-012	3.35155e-012	3.76389e-012	4.43753e-012	4.79354e-012	5.30411e-012	5.60392e-012	6.16634e-012	6.53546e-012	7.01483e-012	7.39026e-012	7.85838e-012	8.22266e-012	8.60714e-012	8.79685e-012	9.17035e-012	
CoarseR77	1.62067e-012	2.35214e-012	2.95881e-012	3.59185e-012	4.18401e-012	4.69257e-012	5.27404e-012	5.68141e-012	6.39645e-012	6.85659e-012	7.40724e-012	7.72045e-012	8.27906e-012	8.64418e-012	9.01269e-012	9.42908e-012	9.91101e-012	1.02264e-011	1.059e-011	1.08833e-011	1.12073e-011	
CoarseR78	3.51247e-012	4.24164e-012	4.88691e-012	5.47166e-012	6.1237e-012	6.61023e-012	7.20562e-012	7.61003e-012	8.21357e-012	8.66862e-012	9.21581e-012	9.57043e-012	1.0233e-011	1.04867e-011	1.09591e-011	1.13717e-011	1.17411e-011	1.20527e-011	1.24143e-011	1.2595e-011	1.30853e-011	
CoarseR79	5.41696e-012	6.16022e-012	6.84742e-012	7.42593e-012	8.05595e-012	8.60093e-012	9.23817e-012	9.53062e-012	1.01749e-011	1.06451e-011	1.11882e-011	1.15389e-011	1.20901e-011	1.24475e-011	1.28702e-011	1.32804e-011	1.3691e-011	1.41063e-011	1.44172e-011	1.45316e-011	1.49733e-011	
CoarseR80	7.37408e-012	8.11381e-012	8.68859e-012	9.35304e-012	9.9529e-012	1.03873e-011	1.10827e-011	1.14792e-011	1.2075e-011	1.246e-011	1.30627e-011	1.33459e-011	1.39567e-011	1.43723e-011	1.47738e-011	1.5225e-011	1.56337e-011	1.60006e-011	1.63684e-011	1.65261e-011	1.6902e-011	
MinCout:	-5.02678e-014	CoarseR:	72	CoarseC:	57

	FineC0	FineC10	FineC20	FineC30	FineC40	FineC50	FineC60	FineC70	FineC80	FineC90	FineC100	FineC110	FineC120	FineC130	FineC140	FineC150	FineC160	FineC170	FineC180	FineC190	FineC200	FineC210	FineC220	FineC230	FineC240	FineC250	
FineR0	-6.45887e-011	-5.22343e-011	-4.55133e-011	-4.06926e-011	-3.72423e-011	-3.45584e-011	-3.24966e-011	-3.08888e-011	-2.94867e-011	-2.84276e-011	-2.73884e-011	-2.66736e-011	-2.60023e-011	-2.53555e-011	-2.48454e-011	-2.44837e-011	-2.41231e-011	-2.3851e-011	-2.35647e-011	-2.33379e-011	-2.30805e-011	-2.28395e-011	-2.26286e-011	-2.24945e-011	-2.2346e-011	-2.22422e-011	
FineR10	-5.08579e-011	-3.87959e-011	-3.20862e-011	-2.7331e-011	-2.38768e-011	-2.11752e-011	-1.90733e-011	-1.74175e-011	-1.61308e-011	-1.5123e-011	-1.40885e-011	-1.33784e-011	-1.28162e-011	-1.22328e-011	-1.17213e-011	-1.12977e-011	-1.09364e-011	-1.06027e-011	-1.03131e-011	-1.00234e-011	-9.9329e-012	-9.68924e-012	-9.49048e-012	-9.33855e-012	-9.13925e-012	-8.9711e-012	
FineR20	-4.59547e-011	-3.40523e-011	-2.73753e-011	-2.23136e-011	-1.89212e-011	-1.62571e-011	-1.41454e-011	-1.25168e-011	-1.1324e-011	-1.02326e-011	-9.24677e-012	-8.49468e-012	-7.76524e-012	-7.24621e-012	-6.73455e-012	-6.37404e-012	-5.99515e-012	-5.66122e-012	-5.43403e-012	-5.20592e-012	-4.99034e-012	-4.7458e-012	-4.54634e-012	-4.45482e-012	-4.31734e-012	-4.08506e-012	
FineR30	-4.3496e-011	-3.14555e-011	-2.47995e-011	-1.98998e-011	-1.63556e-011	-1.36799e-011	-1.15513e-011	-9.92844e-012	-8.69599e-012	-7.6339e-012	-6.77544e-012	-5.96285e-012	-5.44846e-012	-4.76162e-012	-4.31355e-012	-3.90868e-012	-3.53045e-012	-3.19642e-012	-2.90687e-012	-2.6337e-012	-2.52544e-012	-2.3426e-012	-2.1429e-012	-1.9885e-012	-1.78875e-012	-1.72588e-012	
FineR40	-4.21524e-011	-3.01337e-011	-2.3226e-011	-1.85014e-011	-1.48596e-011	-1.22526e-011	-1.01076e-011	-8.46998e-012	-7.19796e-012	-6.15612e-012	-5.2805e-012	-4.5763e-012	-3.91176e-012	-3.33256e-012	-2.86755e-012	-2.46329e-012	-2.08527e-012	-1.7516e-012	-1.52469e-012	-1.29714e-012	-9.8999e-013	-8.35858e-013	-6.9819e-013	-4.81509e-013	-3.43643e-013	-1.72668e-013	
FineR50	-4.11218e-011	-2.90877e-011	-2.22896e-011	-1.75737e-011	-1.39143e-011	-1.13124e-011	-9.1294e-012	-7.51299e-012	-6.11741e-012	-5.13852e-012	-4.15792e-012	-3.45421e-012	-2.879e-012	-2.25597e-012	-1.79118e-012	-1.43204e-012	-1.0542e-012	-7.3767e-013	-5.55974e-013	-2.20982e-013	-2.12416e-014	1.33047e-013	3.78549e-013	5.95541e-013	6.87806e-013	7.96902e-013	
FineR60	-4.04134e-011	-2.84848e-011	-2.15942e-011	-1.69225e-011	-1.32251e-011	-1.05853e-011	-8.48914e-012	-6.81214e-012	-5.43692e-012	-4.39733e-012	-3.52365e-012	-2.77623e-012	-2.20149e-012	-1.56109e-012	-1.11428e-012	-7.1043e-013	-3.77584e-013	-1.06221e-013	1.82938e-013	4.10306e-013	6.72337e-013	8.55294e-013	1.00998e-012	1.22712e-012	1.31942e-012	1.42866e-012	
FineR70	-3.99775e-011	-2.79954e-011	-2.11757e-011	-1.64029e-011	-1.27085e-011	-1.0112e-011	-8.03924e-012	-6.30063e-012	-4.90784e-012	-3.86916e-012	-2.95193e-012	-2.18693e-012	-1.67512e-012	-1.09739e-012	-6.50955e-013	-1.85046e-013	1.47607e-013	4.18789e-013	7.07992e-013	9.80603e-013	1.18029e-012	1.38016e-012	1.53474e-012	1.68966e-012	1.78196e-012	1.99955e-012	
FineR80	-3.96753e-011	-2.76366e-011	-2.07598e-011	-1.60532e-011	-1.22991e-011	-9.64159e-012	-7.57048e-012	-5.89591e-012	-4.60945e-012	-3.52782e-012	-2.54938e-012	-1.9094e-012	-1.2288e-012	-6.95893e-013	-2.49652e-013	1.53728e-013	5.3122e-013	8.64789e-013	1.09158e-012	1.31879e-012	1.58096e-012	1.78102e-012	1.98107e-012	2.13609e-012	2.22846e-012	2.33793e-012	
FineR90	-3.94147e-011	-2.72866e-011	-2.05131e-011	-1.57056e-011	-1.20161e-011	-9.36018e-012	-7.29079e-012	-5.61665e-012	-4.26848e-012	-3.18741e-012	-2.33443e-012	-1.56977e-012	-9.96174e-013	-3.74566e-013	2.69389e-014	4.92649e-013	8.07617e-013	1.07878e-012	1.43039e-012	1.65756e-012	1.85741e-012	2.05754e-012	2.25762e-012	2.35026e-012	2.56746e-012	2.677e-012	
FineR100	-3.91903e-011	-2.71011e-011	-2.02692e-011	-1.54245e-011	-1.18397e-011	-9.12303e-012	-7.05438e-012	-5.38129e-012	-4.05373e-012	-2.97285e-012	-2.10117e-012	-1.35546e-012	-6.7496e-013	-1.42389e-013	2.58908e-013	6.61994e-013	1.08432e-012	1.37276e-012	1.64446e-012	1.93432e-012	2.08877e-012	2.27169e-012	2.47181e-012	2.64404e-012	2.73644e-012	2.84602e-012	
FineR110	-3.90076e-011	-2.69225e-011	-2.00502e-011	-1.52892e-011	-1.16032e-011	-8.95003e-012	-6.81845e-012	-5.20915e-012	-3.88226e-012	-2.73924e-012	-1.88691e-012	-1.12272e-012	-5.05186e-013	7.18143e-014	4.73153e-013	9.38691e-013	1.19112e-012	1.54196e-012	1.81358e-012	2.04099e-012	2.3033e-012	2.44112e-012	2.65801e-012	2.8131e-012	2.95126e-012	3.06092e-012	
FineR120	-3.89226e-011	-2.6844e-011	-1.99756e-011	-1.51783e-011	-1.15335e-011	-8.83906e-012	-6.70978e-012	-4.99495e-012	-3.66782e-012	-2.63154e-012	-1.71658e-012	-9.71076e-013	-3.97802e-013	2.41433e-013	6.87358e-013	1.00089e-012	1.42305e-012	1.69388e-012	1.98301e-012	2.25543e-012	2.51784e-012	2.61017e-012	2.81028e-012	3.02786e-012	3.07503e-012	3.2305e-012	
FineR130	-3.88083e-011	-2.66946e-011	-1.9801e-011	-1.50675e-011	-1.13834e-011	-8.71034e-012	-6.60111e-012	-4.8867e-012	-3.55988e-012	-2.52384e-012	-1.60909e-012	-8.45541e-013	-2.90554e-013	3.48589e-013	7.49757e-013	1.15266e-012	1.48508e-012	1.80089e-012	2.09005e-012	2.42489e-012	2.5794e-012	2.77967e-012	2.91736e-012	3.07256e-012	3.22744e-012	3.35431e-012	
FineR140	-3.87302e-011	-2.65826e-011	-1.97529e-011	-1.49579e-011	-1.12744e-011	-8.66426e-012	-6.49301e-012	-4.75952e-012	-3.49602e-012	-2.4164e-012	-1.3954e-012	-8.00767e-013	-1.20851e-013	4.11173e-013	8.56817e-013	1.215e-012	1.63713e-012	1.90791e-012	2.25951e-012	2.46946e-012	2.68646e-012	2.88673e-012	3.08688e-012	3.24211e-012	3.28934e-012	3.4615e-012	
FineR150	-3.86886e-011	-2.64706e-011	-1.96461e-011	-1.48901e-011	-1.12481e-011	-8.61894e-012	-6.42813e-012	-4.71458e-012	-3.38843e-012	-2.37169e-012	-1.39451e-012	-6.9356e-013	-5.80804e-014	5.18255e-013	9.19274e-013	1.32203e-012	1.74415e-012	2.01492e-012	2.24163e-012	2.54857e-012	2.68602e-012	2.99381e-012	3.13154e-012	3.24161e-012	3.39649e-012	3.50626e-012	
FineR160	-3.864e-011	-2.64637e-011	-1.95996e-011	-1.48442e-011	-1.11623e-011	-8.49092e-012	-6.38304e-012	-4.60679e-012	-3.38661e-012	-2.30818e-012	-1.33131e-012	-5.86523e-013	-1.35108e-014	5.62793e-013	9.63812e-013	1.42901e-012	1.74367e-012	2.07708e-012	2.36618e-012	2.59314e-012	2.79306e-012	2.99335e-012	3.13104e-012	3.34872e-012	3.44119e-012	3.65924e-012	
FineR170	-3.86304e-011	-2.64568e-011	-1.95318e-011	-1.48401e-011	-1.11592e-011	-8.44734e-012	-6.38115e-012	-4.66823e-012	-3.28013e-012	-2.26376e-012	-1.39342e-012	-5.8617e-013	-1.34258e-014	5.62844e-013	1.13341e-012	1.42886e-012	1.8509e-012	2.13924e-012	2.41073e-012	2.6377e-012	2.85508e-012	3.03796e-012	3.23812e-012	3.45583e-012	3.54886e-012	3.6129e-012	
FineR180	-3.86235e-011	-2.64115e-011	-1.95906e-011	-1.47736e-011	-1.10512e-011	-8.44317e-012	-6.27367e-012	-4.60437e-012	-3.23537e-012	-2.20026e-012	-1.28636e-012	-5.85817e-013	3.11118e-014	6.25352e-013	1.07073e-012	1.49116e-012	1.85066e-012	2.07648e-012	2.47283e-012	2.68264e-012	2.88266e-012	3.09994e-012	3.30007e-012	3.39287e-012	3.54778e-012	3.70341e-012	
FineR190	-3.8575e-011	-2.64046e-011	-1.95228e-011	-1.47305e-011	-1.11114e-011	-8.40034e-012	-6.33478e-012	-4.55949e-012	-3.23466e-012	-2.19975e-012	-1.24231e-012	-5.41424e-013	9.3756e-014	6.69768e-013	1.1778e-012	1.47336e-012	1.8504e-012	2.18345e-012	2.41001e-012	2.68223e-012	2.94467e-012	3.03702e-012	3.23713e-012	3.39236e-012	3.59299e-012	3.65761e-012	
FineR200	-3.8607e-011	-2.64643e-011	-1.94778e-011	-1.48303e-011	-1.11092e-011	-8.39864e-012	-6.33348e-012	-4.55852e-012	-3.23394e-012	-2.19924e-012	-1.24178e-012	-5.41237e-013	1.38083e-013	7.14214e-013	1.17767e-012	1.51781e-012	1.95734e-012	2.18314e-012	2.40966e-012	2.68181e-012	2.94422e-012	3.08162e-012	3.28174e-012	3.45428e-012	3.59245e-012	3.7023e-012	
FineR210	-3.86658e-011	-2.64593e-011	-1.94741e-011	-1.47465e-011	-1.1107e-011	-8.39694e-012	-6.33217e-012	-4.51509e-012	-3.23323e-012	-2.19873e-012	-1.24146e-012	-4.97049e-013	1.38148e-013	7.14247e-013	1.17754e-012	1.5801e-012	1.8946e-012	2.22794e-012	2.45453e-012	2.6814e-012	2.88132e-012	3.1891e-012	3.34417e-012	3.43699e-012	3.59191e-012	3.70174e-012	
FineR220	-3.86269e-011	-2.64593e-011	-1.95366e-011	-1.47219e-011	-1.10646e-011	-8.39523e-012	-6.33217e-012	-4.55755e-012	-3.25201e-012	-2.21732e-012	-1.19742e-012	-4.96898e-013	7.57611e-014	7.14247e-013	1.22208e-012	1.5801e-012	1.89462e-012	2.16516e-012	2.56185e-012	2.72631e-012	2.92631e-012	3.14358e-012	3.28122e-012	3.43647e-012	3.59137e-012	3.70174e-012	
FineR230	-3.86511e-011	-2.6417e-011	-1.94954e-011	-1.48061e-011	-1.10646e-011	-8.45765e-012	-6.22604e-012	-4.51413e-012	-3.18922e-012	-2.1546e-012	-1.15339e-012	-4.96719e-013	1.20068e-013	7.142e-013	1.15949e-012	1.57989e-012	1.89435e-012	2.16516e-012	2.49902e-012	2.68099e-012	2.88088e-012	3.12619e-012	3.32631e-012	3.48161e-012	3.59137e-012	3.74697e-012	
FineR240	-3.86831e-011	-2.64817e-011	-1.95329e-011	-1.47436e-011	-1.10624e-011	-8.41485e-012	-6.28774e-012	-4.51316e-012	-3.2513e-012	-2.21681e-012	-1.19711e-012	-4.96719e-013	1.20068e-013	6.51665e-013	1.09698e-012	1.5174e-012	1.83187e-012	2.20995e-012	2.45379e-012	2.72592e-012	2.92587e-012	3.08066e-012	3.26387e-012	3.43595e-012	3.63655e-012	3.74641e-012	
FineR250	-3.86441e-011	-2.64767e-011	-1.95557e-011	-1.48032e-011	-1.10834e-011	-8.4763e-012	-6.28774e-012	-4.57604e-012	-3.2513e-012	-2.17297e-012	-1.15308e-012	-5.59149e-013	5.75592e-014	6.5162e-013	1.09685e-012	1.62452e-012	1.83161e-012	2.16484e-012	2.49865e-012	2.77084e-012	2.88044e-012	3.06325e-012	3.26336e-012	3.48108e-012	3.636e-012	3.79163e-012	
MinCout:	-1.34258e-014	FineR:	170	FineC:	120

	FineC130	FineC131	FineC132	FineC133	FineC134	FineC135	FineC136	FineC137	FineC138	FineC139	FineC140	FineC141	FineC142	FineC143	FineC144	FineC145	FineC146	FineC147	FineC148	FineC149	FineC150	
FineR80	-6.3355e-013	-6.33649e-013	-6.51548e-013	-4.99885e-013	-4.55285e-013	-4.55338e-013	-4.2846e-013	-3.21363e-013	-3.3912e-013	-2.31982e-013	-1.87248e-013	-1.4252e-013	-5.29939e-014	-9.77425e-014	-5.29418e-014	-8.15565e-015	3.66887e-014	8.15125e-014	1.264e-013	1.71262e-013	1.71372e-013	
FineR81	-6.3355e-013	-5.71207e-013	-5.89103e-013	-4.99885e-013	-4.10621e-013	-4.10673e-013	-4.10662e-013	-3.2138e-013	-2.76692e-013	-1.6956e-013	-1.87274e-013	-1.4252e-013	-5.30288e-014	-9.77425e-014	9.46568e-015	-8.15565e-015	3.66479e-014	1.4392e-013	1.26354e-013	1.71262e-013	2.33771e-013	
FineR82	-5.88928e-013	-5.26566e-013	-4.82018e-013	-4.37447e-013	-4.10632e-013	-3.48237e-013	-3.66044e-013	-2.58915e-013	-2.14265e-013	-1.69575e-013	-1.24849e-013	-1.42549e-013	9.3931e-015	-3.53293e-014	9.43948e-015	9.90237e-014	9.90612e-014	1.43885e-013	1.88764e-013	3.40881e-013	2.78549e-013	
FineR83	-5.26472e-013	-5.71102e-013	-4.82011e-013	-3.92794e-013	-2.85749e-013	-3.4819e-013	-3.03564e-013	-2.58915e-013	-1.69574e-013	-1.6956e-013	-1.24861e-013	-8.01241e-014	-3.53873e-014	9.3931e-015	5.41967e-014	9.89916e-014	9.90292e-014	1.88671e-013	2.95973e-013	2.78433e-013	3.40957e-013	
FineR84	-4.63935e-013	-4.8193e-013	-4.37373e-013	-3.30346e-013	-3.48144e-013	-2.41125e-013	-2.41128e-013	-2.58923e-013	-1.07138e-013	-1.24878e-013	-6.24304e-014	2.70259e-014	9.34672e-015	7.1815e-014	1.16592e-013	1.61411e-013	2.06226e-013	2.51088e-013	2.95941e-013	3.40846e-013	2.78433e-013	
FineR85	-5.26379e-013	-4.64016e-013	-4.19486e-013	-3.30337e-013	-2.85696e-013	-2.41125e-013	-2.41125e-013	-1.51823e-013	-2.14265e-013	-6.24391e-014	-3.54453e-014	2.70114e-014	7.17744e-014	7.17975e-014	1.16592e-013	1.61387e-013	2.06226e-013	2.51058e-013	2.95941e-013	3.85615e-013	3.40846e-013	
FineR86	-4.63917e-013	-4.19384e-013	-4.19471e-013	-3.30282e-013	-2.41043e-013	-2.41084e-013	-1.96455e-013	-1.51805e-013	-1.07132e-013	0	-1.77284e-014	8.94447e-014	7.17568e-014	1.1654e-013	1.16572e-013	2.0615e-013	2.68596e-013	2.51e-013	2.95842e-013	3.40736e-013	4.0326e-013	
FineR87	-3.5685e-013	-4.19384e-013	-3.12386e-013	-2.67829e-013	-2.41043e-013	-1.78634e-013	-1.96455e-013	-1.51805e-013	-4.46904e-014	-1.77457e-014	4.47107e-014	1.34167e-013	1.78924e-013	1.78971e-013	1.61323e-013	2.23772e-013	2.0615e-013	3.13423e-013	3.58267e-013	4.4795e-013	3.85615e-013	
FineR88	-3.5685e-013	-3.56919e-013	-3.12386e-013	-2.23176e-013	-1.78587e-013	-1.78634e-013	-1.34001e-013	-4.46788e-014	0	4.46991e-014	8.94215e-014	1.34158e-013	1.78924e-013	1.78959e-013	2.23757e-013	2.23757e-013	2.68578e-013	3.13402e-013	3.58267e-013	4.4792e-013	4.48037e-013	
FineR89	-3.12223e-013	-2.4984e-013	-2.67741e-013	-2.23176e-013	-1.3394e-013	-1.33966e-013	-8.93343e-014	-4.46758e-014	0	1.07144e-013	8.94156e-014	1.78878e-013	1.78878e-013	1.78924e-013	2.86144e-013	2.68508e-013	3.13341e-013	3.58174e-013	4.65475e-013	4.4792e-013	4.48007e-013	
FineR90	-3.12202e-013	-3.56826e-013	-2.67741e-013	-1.60714e-013	-1.78541e-013	-1.33966e-013	-7.1525e-014	-4.46671e-014	-4.46788e-014	4.46875e-014	1.07144e-013	1.34123e-013	1.78878e-013	2.41361e-013	2.23699e-013	3.75693e-013	3.1332e-013	4.20604e-013	4.02945e-013	5.10258e-013	4.4792e-013	
FineR91	-3.12141e-013	-2.49752e-013	-2.05225e-013	-1.6065e-013	-7.14438e-014	-7.14844e-014	-2.6852e-014	1.77862e-014	-4.46758e-014	4.46875e-014	8.93923e-014	1.96571e-013	2.86039e-013	2.23641e-013	3.30878e-013	3.93317e-013	3.75757e-013	4.20517e-013	4.65376e-013	5.10238e-013	5.10348e-013	
FineR92	-2.49665e-013	-1.87282e-013	-2.05198e-013	-1.6065e-013	-8.98203e-015	-1.33932e-013	-2.6852e-014	8.02395e-014	6.24563e-014	1.07138e-013	2.58987e-013	2.41279e-013	2.86039e-013	2.4132e-013	2.86092e-013	3.30878e-013	3.75693e-013	4.20517e-013	5.27807e-013	5.55018e-013	5.5514e-013	
FineR93	-2.49665e-013	-1.87282e-013	-2.05198e-013	-5.35593e-014	-7.14262e-014	-7.14668e-014	3.56071e-014	1.24907e-013	6.24563e-014	1.51828e-013	1.96542e-013	3.03727e-013	2.41279e-013	2.86039e-013	2.86086e-013	3.75617e-013	3.75681e-013	4.65277e-013	5.27807e-013	5.10148e-013	6.17568e-013	
FineR94	-1.87135e-013	-2.49665e-013	-2.05149e-013	-9.81454e-014	-7.14262e-014	-7.14438e-014	3.56185e-014	1.78035e-014	6.24533e-014	1.07132e-013	2.14276e-013	2.41238e-013	3.48434e-013	3.48481e-013	3.30814e-013	4.38057e-013	4.2043e-013	5.27714e-013	5.72566e-013	5.72579e-013	5.10238e-013	
FineR95	-2.49578e-013	-1.87189e-013	-1.42679e-013	-9.81132e-014	-8.93571e-015	-8.98203e-015	3.56417e-014	8.02626e-014	1.07138e-013	1.69588e-013	1.51828e-013	3.03692e-013	3.48434e-013	4.10923e-013	3.93259e-013	4.38053e-013	4.82872e-013	4.82872e-013	5.72566e-013	6.62214e-013	6.62342e-013	
FineR96	-1.87097e-013	-1.24714e-013	-9.8081e-014	8.94611e-015	5.35318e-014	-8.95578e-015	3.56417e-014	1.69588e-013	1.24924e-013	2.7672e-013	2.14287e-013	3.66145e-013	3.48437e-013	3.48484e-013	3.93258e-013	5.00501e-013	4.82866e-013	5.27704e-013	5.72554e-013	6.17437e-013	6.62324e-013	
FineR97	-1.24615e-013	-1.87151e-013	-8.0165e-014	8.97187e-015	-8.90945e-015	9.81469e-014	8.03032e-014	1.24935e-013	2.32068e-013	2.14276e-013	3.21431e-013	3.03697e-013	3.48437e-013	4.10935e-013	3.93258e-013	5.00501e-013	4.82866e-013	5.9015e-013	5.72554e-013	6.79775e-013	6.17437e-013	
FineR98	-8.0035e-014	-1.42563e-013	-3.55647e-014	-5.34721e-014	9.81873e-014	9.81469e-014	8.03059e-014	1.87403e-013	2.3205e-013	2.76741e-013	3.21431e-013	3.66159e-013	4.10894e-013	3.932e-013	4.55712e-013	5.45238e-013	5.45317e-013	5.90063e-013	6.34907e-013	6.79775e-013	6.17437e-013	
FineR99	-7.99912e-014	-8.00781e-014	-3.55647e-014	9.00978e-015	9.81873e-014	9.81469e-014	1.42779e-013	1.87403e-013	2.3205e-013	2.76741e-013	3.21431e-013	4.10852e-013	4.55598e-013	3.932e-013	5.00437e-013	5.45241e-013	5.90062e-013	5.90062e-013	6.34907e-013	6.1732e-013	6.79879e-013	
FineR100	-7.99912e-014	-8.00781e-014	-3.55239e-014	5.36187e-014	9.81873e-014	9.81788e-014	1.42779e-013	1.87429e-013	2.32073e-013	3.39206e-013	3.21448e-013	4.10852e-013	4.55607e-013	4.10894e-013	4.3798e-013	5.45241e-013	5.45238e-013	5.90062e-013	6.34903e-013	6.79768e-013	6.79873e-013	
MinCout:	0	FineR:	86	FineC:	139

