-0.032265154	-0.032775459	-0.03314849	-0.033381087	-0.033472048	-0.033422129	-0.033234	-0.032912144	-0.032462711	-0.031893325	-0.031212872	-0.030431259	-0.03150508	-0.03247753	-0.03332073	-0.03402492	-0.034582212	-0.034986788	-0.035235042	-0.035325661	-0.035259631	-0.035040172	-0.03467262	-0.034164235	-0.033523976	-0.032762232	-0.031890529	-0.030921228	-0.029867221	-0.02874164	-0.031957226	-0.033158525	-0.034229911	-0.035158163	-0.035931932	-0.036542053	-0.036981791	-0.037247016	-0.037336299	-0.037250914	-0.036994762	-0.036574212	-0.035997871	-0.035276302	-0.034421689	-0.033447485	-0.032368043	-0.03119825	-0.029953181	-0.028647781	-0.030600465	-0.032161707	-0.033615072	-0.034942137	-0.036125738	-0.037150444	-0.038003	-0.038672714	-0.039151758	-0.039435386	-0.039522045	-0.039413378	-0.039114125	-0.038631921	-0.037977008	-0.037161883	-0.036200887	-0.035109769	-0.03390524	-0.032604531	-0.031224982	-0.029783667	-0.028297066	-0.026780792	-0.030243882	-0.032064727	-0.033790672	-0.035399427	-0.036869505	-0.038180825	-0.039315302	-0.040257391	-0.040994561	-0.041517676	-0.041821261	-0.041903635	-0.041766913	-0.041416877	-0.040862715	-0.040116665	-0.03919357	-0.038110366	-0.036885551	-0.035538633	-0.034089606	-0.032558449	-0.030964693	-0.02932704	-0.027663054	-0.025988928	-0.029519977	-0.031609561	-0.033623923	-0.035536963	-0.037322694	-0.038955963	-0.04041318	-0.041673055	-0.042717271	-0.043531077	-0.044103762	-0.044428984	-0.044504934	-0.044334335	-0.043924264	-0.043285831	-0.04243372	-0.041385625	-0.040161625	-0.038783514	-0.037274134	-0.035656733	-0.033954375	-0.032189426	-0.030383116	-0.028555197	-0.026723688	-0.024904708	-0.028379215	-0.030738782	-0.033050368	-0.035284459	-0.037410698	-0.039398687	-0.041218855	-0.042843375	-0.044247065	-0.045408238	-0.046309446	-0.04693807	-0.047286737	-0.047353514	-0.047141904	-0.046660612	-0.045923131	-0.044947155	-0.043753871	-0.042367169	-0.040812813	-0.039117624	-0.037308697	-0.0354127	-0.03345527	-0.03146051	-0.029450611	-0.027445585	-0.025463099	-0.023518417	-0.026776745	-0.029397349	-0.03200531	-0.034568528	-0.037052836	-0.039422822	-0.041642791	-0.043677839	-0.045494985	-0.047064301	-0.048359981	-0.049361277	-0.050053251	-0.05042729	-0.050481355	-0.050219956	-0.049653852	-0.04879951	-0.047678349	-0.046315848	-0.04474054	-0.04298299	-0.041074778	-0.039047554	-0.036932201	-0.034758122	-0.032552676	-0.03034076	-0.028144537	-0.025983287	-0.023873385	-0.021828358	-0.027536562	-0.030427668	-0.033316232	-0.036165385	-0.038935485	-0.041585093	-0.044072137	-0.046355237	-0.048395115	-0.050156022	-0.051607082	-0.052723492	-0.053487472	-0.053888916	-0.053925707	-0.053603669	-0.052936163	-0.051943385	-0.050651396	-0.049090967	-0.047296321	-0.045303839	-0.043150812	-0.040874291	-0.038510084	-0.036091927	-0.033650852	-0.031214734	-0.028808027	-0.026451652	-0.024163024	-0.02195619	-0.02511879	-0.028264889	-0.031459935	-0.034666097	-0.037840988	-0.040938518	-0.043910041	-0.046705777	-0.049276445	-0.051575035	-0.053558606	-0.055190012	-0.056439428	-0.057285569	-0.057716527	-0.057730156	-0.057333994	-0.056544728	-0.055387261	-0.053893459	-0.052100663	-0.050050086	-0.047785188	-0.045350128	-0.042788364	-0.040141458	-0.03744812	-0.034743495	-0.032058705	-0.029420598	-0.026851705	-0.024370344	-0.021990857	-0.019723928	-0.022122694	-0.025478737	-0.02894341	-0.032480319	-0.036046607	-0.03959352	-0.043067362	-0.046410855	-0.049564861	-0.052470414	-0.055070945	-0.057314584	-0.059156368	-0.060560213	-0.061500489	-0.061963093	-0.061945934	-0.061458803	-0.060522659	-0.059168388	-0.057435161	-0.055368513	-0.053018284	-0.050436576	-0.047675825	-0.044787096	-0.041818665	-0.03881492	-0.035815588	-0.032855268	-0.029963251	-0.027163559	-0.024475177	-0.021912419	-0.019485379	-0.017200437	-0.022051562	-0.025728933	-0.029548608	-0.033470331	-0.037445659	-0.041418514	-0.045326237	-0.049101178	-0.052672797	-0.055970188	-0.058924905	-0.061473907	-0.063562421	-0.065146505	-0.0661951	-0.066691419	-0.066633557	-0.066034292	-0.064920105	-0.063329535	-0.061311004	-0.058920315	-0.05621801	-0.053266772	-0.050129027	-0.046864873	-0.043530401	-0.040176447	-0.036847775	-0.033582647	-0.030412736	-0.027363322	-0.024453683	-0.021697642	-0.019104198	-0.016678187	-0.021804804	-0.025835435	-0.030050382	-0.034405449	-0.038846073	-0.043307795	-0.047717398	-0.051994753	-0.056055367	-0.059813541	-0.063185967	-0.066095535	-0.06847507	-0.070270687	-0.071444491	-0.071976396	-0.071864888	-0.071126726	-0.069795592	-0.067919877	-0.065559791	-0.062784083	-0.059666619	-0.056283075	-0.052707958	-0.049012081	-0.045260594	-0.041511599	-0.037815313	-0.034213734	-0.030740722	-0.027422398	-0.024277784	-0.021319576	-0.018555003	-0.015986687	-0.017192415	-0.021338169	-0.025755897	-0.030410292	-0.035253342	-0.040223908	-0.045248025	-0.050240064	-0.055104855	-0.05974077	-0.064043677	-0.067911552	-0.071249432	-0.073974329	-0.076019676	-0.07733891	-0.077907857	-0.07772572	-0.0768146	-0.075217642	-0.072996016	-0.070225051	-0.066989902	-0.063381097	-0.05949032	-0.05540669	-0.051213706	-0.046986967	-0.04279266	-0.038686778	-0.034714961	-0.030912831	-0.02730671	-0.023914566	-0.020747109	-0.017808924	-0.015099577	-0.012614661	-0.016095123	-0.020597591	-0.025437559	-0.03057934	-0.035971556	-0.041546221	-0.047218714	-0.052888877	-0.058443397	-0.063759521	-0.068710024	-0.073169141	-0.077019072	-0.080156503	-0.08249855	-0.083987554	-0.084594258	-0.084319073	-0.08319134	-0.081266735	-0.078623132	-0.075355385	-0.071569556	-0.067377099	-0.062889461	-0.058213437	-0.0534475	-0.048679192	-0.043983555	-0.0394225	-0.035044941	-0.030887538	-0.026975833	-0.023325641	-0.019944538	-0.016833346	-0.013987534	-0.011398489	-0.014636748	-0.019517146	-0.024814775	-0.03049516	-0.036504518	-0.04276808	-0.049189502	-0.055651726	-0.062019559	-0.068144123	-0.073869084	-0.079038346	-0.08350465	-0.087138313	-0.089835256	-0.091523498	-0.092167424	-0.091769408	-0.090368683	-0.088037671	-0.084876259	-0.081004687	-0.076555814	-0.07166748	-0.066475571	-0.061108245	-0.055681554	-0.050296534	-0.045037689	-0.03997267	-0.035152908	-0.030614922	-0.026382069	-0.022466503	-0.018871168	-0.015591712	-0.012618232	-0.009936799	-0.012741228	-0.018016641	-0.023805997	-0.03007848	-0.03677964	-0.043828576	-0.051116415	-0.058506633	-0.065837705	-0.072928341	-0.079585309	-0.085613458	-0.090827182	-0.095062254	-0.098186797	-0.100110168	-0.100788747	-0.10022804	-0.098480927	-0.095642418	-0.091841647	-0.0872321	-0.081981177	-0.076260106	-0.070235038	-0.064059879	-0.057871149	-0.051784865	-0.045895272	-0.040275088	-0.034976898	-0.030035303	-0.025469488	-0.021285924	-0.017480999	-0.014043438	-0.010956435	-0.008199451	-0.010318309	-0.015998842	-0.022310133	-0.029228678	-0.036702271	-0.044645497	-0.052936706	-0.061417319	-0.069894235	-0.078145866	-0.085931934	-0.093006584	-0.099133815	-0.104103682	-0.107747456	-0.109949925	-0.110657353	-0.109880178	-0.107690303	-0.104213505	-0.09961812	-0.094101491	-0.08787579	-0.081154633	-0.07414164	-0.067021614	-0.059954625	-0.053072888	-0.046480071	-0.040252504	-0.03444172	-0.029077788	-0.024172982	-0.019725437	-0.015722551	-0.012143994	-0.008964253	-0.006154707	-0.007261582	-0.013346373	-0.020202214	-0.02781825	-0.036149166	-0.045108194	-0.054561736	-0.064326848	-0.074172838	-0.08382796	-0.092991594	-0.101351499	-0.108604763	-0.114480248	-0.118759814	-0.121295576	-0.122020942	-0.1209541	-0.118193758	-0.113908032	-0.108318281	-0.101680142	-0.094264117	-0.086337779	-0.078151074	-0.069925602	-0.061848037	-0.054067397	-0.046695465	-0.03980955	-0.033456724	-0.027658797	-0.022417437	-0.017719016	-0.013538924	-0.009845228	-0.00660164	-0.003769834	-0.003446636	-0.009918373	-0.017328341	-0.025685991	-0.034960064	-0.045068036	-0.055867094	-0.067148498	-0.078637353	-0.089999498	-0.100856494	-0.110808385	-0.119462435	-0.126464619	-0.131529741	-0.134465974	-0.135190352	-0.133733235	-0.130231548	-0.124912308	-0.118069262	-0.110036097	-0.101159709	-0.091776447	-0.082193347	-0.072675316	-0.063438255	-0.054647411	-0.046419783	-0.038829295	-0.031913481	-0.025680706	-0.020117142	-0.015193065	-0.010868195	-0.007096032	-0.003827207	-0.00101197	0.001270355	-0.005547153	-0.013500003	-0.022628724	-0.03292692	-0.044325654	-0.056678876	-0.069752591	-0.083220972	-0.096672425	-0.10962762	-0.1215696	-0.131983606	-0.140401871	-0.146447015	-0.149867434	-0.150559294	-0.148572152	-0.144098106	-0.137447041	-0.129012475	-0.119233376	-0.10855712	-0.097407761	-0.086162238	-0.075135505	-0.06457414	-0.054656986	-0.045500886	-0.037169509	-0.029683523	-0.02303078	-0.017175631	-0.012066896	-0.007644305	-0.003843453	-0.000599431	0.002150668	0.00705312	-3.53E-05	-0.008488003	-0.018391536	-0.029780282	-0.042613935	-0.056754578	-0.071947382	-0.087809883	-0.103835056	-0.119412182	-0.13386666	-0.146515812	-0.15673359	-0.164014114	-0.168023492	-0.168631389	-0.16591787	-0.160155735	-0.151772811	-0.141301467	-0.129323695	-0.116419526	-0.103124667	-0.089900743	-0.077118895	-0.065055397	-0.053896611	-0.0437501	-0.034658888	-0.026616444	-0.019580713	-0.013486233	-0.008253932	-0.003798621	-3.44E-05	0.003121645	0.005747176	0.014084112	0.006846163	-0.002016594	-0.012656696	-0.025172376	-0.039575504	-0.055756458	-0.073451206	-0.092218292	-0.111434618	-0.130317786	-0.14797851	-0.163499758	-0.176031811	-0.184886998	-0.189616797	-0.190057595	-0.186338403	-0.178851696	-0.16819517	-0.155096289	-0.140332663	-0.124659892	-0.108755217	-0.0931811	-0.078368781	-0.064618725	-0.052113188	-0.040935786	-0.031093636	-0.022538817	-0.015187195	-0.008933694	-0.003663907	0.000737624	0.004381903	0.007372125	0.009801915	0.022560535	0.015356904	0.006241036	-0.005031981	-0.018656723	-0.034733247	-0.053214446	-0.07385166	-0.09615004	-0.11934874	-0.14244074	-0.164241057	-0.183500418	-0.199047662	-0.209933853	-0.215548932	-0.215688529	-0.210561139	-0.200739212	-0.187068017	-0.170551728	-0.152237141	-0.133112462	-0.11403286	-0.095677526	-0.078536511	-0.062921027	-0.048988904	-0.036777128	-0.026235118	-0.017254607	-0.009694093	-0.003397342	0.00179357	0.006029777	0.009450643	0.012181313	0.014331976	0.032686003	0.025782436	0.016663887	0.004959955	-0.009664835	-0.02745247	-0.0484747	-0.072545483	-0.099139035	-0.127338566	-0.155843806	-0.183057519	-0.207251035	-0.226782496	-0.240321161	-0.247026971	-0.246648311	-0.239524516	-0.22650253	-0.208792615	-0.187794918	-0.164928629	-0.141489777	-0.118554048	-0.096929407	-0.077152959	-0.059519822	-0.044129783	-0.030939248	-0.01980973	-0.010548102	-0.002937071	0.003243621	0.008203721	0.012134853	0.015207058	0.017568059	0.019344172	0.038421712	0.029677397	0.017887793	0.002517923	-0.016894024	-0.040628947	-0.068649698	-0.100455836	-0.134970853	-0.170514914	-0.204908459	-0.235716877	-0.260594308	-0.277642165	-0.285690433	-0.284439554	-0.274447442	-0.256985327	-0.233807321	-0.206884864	-0.178154517	-0.149318087	-0.121718107	-0.096292281	-0.073593413	-0.053851738	-0.037055586	-0.023031527	-0.011512686	-0.002190721	0.005248373	0.011102043	0.015639169	0.019095091	0.021671088	0.023536417	0.053563528	0.045735339	0.034407086	0.01877201	-0.001959923	-0.028419327	-0.060870109	-0.098959385	-0.1414866	-0.186291039	-0.230358866	-0.270190572	-0.30236125	-0.324112342	-0.333799697	-0.331093338	-0.316921815	-0.293219818	-0.262559129	-0.227741378	-0.191424327	-0.155840606	-0.122642683	-0.092873957	-0.067036412	-0.045211536	-0.027194198	-0.012612137	-0.001018203	0.008046489	0.015014289	0.020271298	0.024150075	0.026929883	0.02884099	0.030070742	0.071446402	0.065281139	0.055234271	0.040147596	0.018761367	-0.010115217	-0.047307502	-0.092858565	-0.145575092	-0.202716936	-0.260056878	-0.312440763	-0.35474096	-0.382872714	-0.394517972	-0.389383187	-0.369033873	-0.336450327	-0.295441323	-0.250022645	-0.203860454	-0.159873062	-0.12004637	-0.085454081	-0.05641945	-0.03273675	-0.013885891	0.000796634	0.012000587	0.020372543	0.026481872	0.030809798	0.033751738	0.035626215	0.036686187	0.037130472	0.088677543	0.08108167	0.067830566	0.047030181	0.016633379	-0.025176397	-0.079323732	-0.144975173	-0.218777986	-0.294713485	-0.3649577	-0.421597749	-0.458469233	-0.472333728	-0.463127116	-0.433519222	-0.388139006	-0.332670319	-0.27291649	-0.213960394	-0.159588769	-0.112089015	-0.072388741	-0.040399517	-0.015407792	0.003593775	0.017675799	0.027837882	0.034946178	0.039716387	0.04272141	0.04440994	0.045128062	0.045139821	0.112528047	0.103031078	0.084925515	0.054936629	0.009586863	-0.053847467	-0.13574845	-0.23237806	-0.335042939	-0.431391821	-0.50873955	-0.557621255	-0.573684426	-0.557601837	-0.513953885	-0.449933762	-0.374056699	-0.294785417	-0.219215849	-0.152200244	-0.096161841	-0.051510176	-0.01733615	0.00791911	0.02597915	0.038451436	0.046703242	0.051833823	0.054695323	0.055932453	0.056024956	0.055325662	0.149793761	0.146731338	0.134654259	0.108706291	0.062815329	-0.009193065	-0.110900609	-0.239265772	-0.381625751	-0.517420562	-0.625261804	-0.690456292	-0.707832623	-0.680075945	-0.614985174	-0.523576604	-0.41859653	-0.312557344	-0.215494565	-0.133491362	-0.068629781	-0.020051502	0.014667437	0.038417503	0.053909657	0.063401625	0.068648187	0.070955944	0.071271278	0.07026717	0.06841603	0.066046144	0.199208755	0.198025566	0.182354489	0.142544038	0.066281182	-0.057644361	-0.230655092	-0.434621059	-0.632687602	-0.78616032	-0.87243576	-0.887928228	-0.840407568	-0.742643294	-0.610765124	-0.46375846	-0.320648309	-0.196013608	-0.09714374	-0.024563527	0.025330412	0.057599417	0.077092265	0.087753885	0.092521783	0.093472036	0.092025357	0.089133718	0.085425308	0.081309132	0.275331958	0.279610193	0.258746416	0.190959104	0.048268215	-0.187364788	-0.493170757	-0.795807176	-1.017749181	-1.126988747	-1.131702557	-1.051515537	-0.904981617	-0.713152303	-0.504225091	-0.308936002	-0.149578898	-0.033824985	0.042398544	0.088273231	0.113141186	0.124424256	0.127347135	0.125351161	0.120615951	0.114486913	0.107777286	0.100967414	0.400511814	0.420446857	0.391552707	0.254344375	-0.063163192	-0.554040703	-1.049527839	-1.369274464	-1.487259911	-1.459708034	-1.329382147	-1.11414296	-0.83329746	-0.529457774	-0.258540295	-0.05748936	0.06980082	0.139646798	0.171854247	0.181885625	0.179818062	0.171652301	0.160784432	0.149067864	0.137475544	0.126488075	0.625913939	0.695844418	0.651809973	0.271925059	-0.607387938	-1.516002359	-1.934713691	-1.987917943	-1.885490293	-1.692515957	-1.393891051	-0.979553324	-0.517812639	-0.131821586	0.111716195	0.231124548	0.273622673	0.276663498	0.262052676	0.240889589	0.218413862	0.196927098	0.177317905	0.159816695	1.367003492	1.259643613	-0.611723168	-2.640384783	-2.850973283	-2.61554467	-2.388898402	-2.16164969	-1.805460438	-1.186696541	-0.416776831	0.154291628	0.408591428	0.466741307	0.444245322	0.397382761	0.347855746	0.30282203	0.263970941	0.231092411	4.105168058	0.1021058	-5.883549198	-3.955547415	-3.185527416	-2.877327412	-2.75138384	-2.523005139	-1.616895164	-0.046055225	0.799404884	0.89252613	0.771935768	0.633902187	0.518655476	0.4283902	0.358308311	0.30348225	-4.073905872	-3.355202976	-3.183048088	-3.379388718	-3.899007733	-3.370041743	1.706139693	2.174235374	1.51877732	1.07448358	0.796399298	0.614254667
-0.030431259	-0.031212872	-0.031893325	-0.032462711	-0.032912144	-0.033234	-0.033422129	-0.033472048	-0.033381087	-0.03314849	-0.032775459	-0.032265154	-0.02874164	-0.029867221	-0.030921228	-0.031890529	-0.032762232	-0.033523976	-0.034164235	-0.03467262	-0.035040172	-0.035259631	-0.035325661	-0.035235042	-0.034986788	-0.034582212	-0.03402492	-0.03332073	-0.03247753	-0.03150508	-0.028647781	-0.029953181	-0.03119825	-0.032368043	-0.033447485	-0.034421689	-0.035276302	-0.035997871	-0.036574212	-0.036994762	-0.037250914	-0.037336299	-0.037247016	-0.036981791	-0.036542053	-0.035931932	-0.035158163	-0.034229911	-0.033158525	-0.031957226	-0.026780792	-0.028297066	-0.029783667	-0.031224982	-0.032604531	-0.03390524	-0.035109769	-0.036200887	-0.037161883	-0.037977008	-0.038631921	-0.039114125	-0.039413378	-0.039522045	-0.039435386	-0.039151758	-0.038672714	-0.038003	-0.037150444	-0.036125738	-0.034942137	-0.033615072	-0.032161707	-0.030600465	-0.025988928	-0.027663054	-0.02932704	-0.030964693	-0.032558449	-0.034089606	-0.035538633	-0.036885551	-0.038110366	-0.03919357	-0.040116665	-0.040862715	-0.041416877	-0.041766913	-0.041903635	-0.041821261	-0.041517676	-0.040994561	-0.040257391	-0.039315302	-0.038180825	-0.036869505	-0.035399427	-0.033790672	-0.032064727	-0.030243882	-0.024904708	-0.026723688	-0.028555197	-0.030383116	-0.032189426	-0.033954375	-0.035656733	-0.037274134	-0.038783514	-0.040161625	-0.041385625	-0.04243372	-0.043285831	-0.043924264	-0.044334335	-0.044504934	-0.044428984	-0.044103762	-0.043531077	-0.042717271	-0.041673055	-0.04041318	-0.038955963	-0.037322694	-0.035536963	-0.033623923	-0.031609561	-0.029519977	-0.023518417	-0.025463099	-0.027445585	-0.029450611	-0.03146051	-0.03345527	-0.0354127	-0.037308697	-0.039117624	-0.040812813	-0.042367169	-0.043753871	-0.044947155	-0.045923131	-0.046660612	-0.047141904	-0.047353514	-0.047286737	-0.04693807	-0.046309446	-0.045408238	-0.044247065	-0.042843375	-0.041218855	-0.039398687	-0.037410698	-0.035284459	-0.033050368	-0.030738782	-0.028379215	-0.021828358	-0.023873385	-0.025983287	-0.028144537	-0.03034076	-0.032552676	-0.034758122	-0.036932201	-0.039047554	-0.041074778	-0.04298299	-0.04474054	-0.046315848	-0.047678349	-0.04879951	-0.049653852	-0.050219956	-0.050481355	-0.05042729	-0.050053251	-0.049361277	-0.048359981	-0.047064301	-0.045494985	-0.043677839	-0.041642791	-0.039422822	-0.037052836	-0.034568528	-0.03200531	-0.029397349	-0.026776745	-0.02195619	-0.024163024	-0.026451652	-0.028808027	-0.031214734	-0.033650852	-0.036091927	-0.038510084	-0.040874291	-0.043150812	-0.045303839	-0.047296321	-0.049090967	-0.050651396	-0.051943385	-0.052936163	-0.053603669	-0.053925707	-0.053888916	-0.053487472	-0.052723492	-0.051607082	-0.050156022	-0.048395115	-0.046355237	-0.044072137	-0.041585093	-0.038935485	-0.036165385	-0.033316232	-0.030427668	-0.027536562	-0.019723928	-0.021990857	-0.024370344	-0.026851705	-0.029420598	-0.032058705	-0.034743495	-0.03744812	-0.040141458	-0.042788364	-0.045350128	-0.047785188	-0.050050086	-0.052100663	-0.053893459	-0.055387261	-0.056544728	-0.057333994	-0.057730156	-0.057716527	-0.057285569	-0.056439428	-0.055190012	-0.053558606	-0.051575035	-0.049276445	-0.046705777	-0.043910041	-0.040938518	-0.037840988	-0.034666097	-0.031459935	-0.028264889	-0.02511879	-0.017200437	-0.019485379	-0.021912419	-0.024475177	-0.027163559	-0.029963251	-0.032855268	-0.035815588	-0.03881492	-0.041818665	-0.044787096	-0.047675825	-0.050436576	-0.053018284	-0.055368513	-0.057435161	-0.059168388	-0.060522659	-0.061458803	-0.061945934	-0.061963093	-0.061500489	-0.060560213	-0.059156368	-0.057314584	-0.055070945	-0.052470414	-0.049564861	-0.046410855	-0.043067362	-0.03959352	-0.036046607	-0.032480319	-0.02894341	-0.025478737	-0.022122694	-0.016678187	-0.019104198	-0.021697642	-0.024453683	-0.027363322	-0.030412736	-0.033582647	-0.036847775	-0.040176447	-0.043530401	-0.046864873	-0.050129027	-0.053266772	-0.05621801	-0.058920315	-0.061311004	-0.063329535	-0.064920105	-0.066034292	-0.066633557	-0.066691419	-0.0661951	-0.065146505	-0.063562421	-0.061473907	-0.058924905	-0.055970188	-0.052672797	-0.049101178	-0.045326237	-0.041418514	-0.037445659	-0.033470331	-0.029548608	-0.025728933	-0.022051562	-0.015986687	-0.018555003	-0.021319576	-0.024277784	-0.027422398	-0.030740722	-0.034213734	-0.037815313	-0.041511599	-0.045260594	-0.049012081	-0.052707958	-0.056283075	-0.059666619	-0.062784083	-0.065559791	-0.067919877	-0.069795592	-0.071126726	-0.071864888	-0.071976396	-0.071444491	-0.070270687	-0.06847507	-0.066095535	-0.063185967	-0.059813541	-0.056055367	-0.051994753	-0.047717398	-0.043307795	-0.038846073	-0.034405449	-0.030050382	-0.025835435	-0.021804804	-0.012614661	-0.015099577	-0.017808924	-0.020747109	-0.023914566	-0.02730671	-0.030912831	-0.034714961	-0.038686778	-0.04279266	-0.046986967	-0.051213706	-0.05540669	-0.05949032	-0.063381097	-0.066989902	-0.070225051	-0.072996016	-0.075217642	-0.0768146	-0.07772572	-0.077907857	-0.07733891	-0.076019676	-0.073974329	-0.071249432	-0.067911552	-0.064043677	-0.05974077	-0.055104855	-0.050240064	-0.045248025	-0.040223908	-0.035253342	-0.030410292	-0.025755897	-0.021338169	-0.017192415	-0.011398489	-0.013987534	-0.016833346	-0.019944538	-0.023325641	-0.026975833	-0.030887538	-0.035044941	-0.0394225	-0.043983555	-0.048679192	-0.0534475	-0.058213437	-0.062889461	-0.067377099	-0.071569556	-0.075355385	-0.078623132	-0.081266735	-0.08319134	-0.084319073	-0.084594258	-0.083987554	-0.08249855	-0.080156503	-0.077019072	-0.073169141	-0.068710024	-0.063759521	-0.058443397	-0.052888877	-0.047218714	-0.041546221	-0.035971556	-0.03057934	-0.025437559	-0.020597591	-0.016095123	-0.009936799	-0.012618232	-0.015591712	-0.018871168	-0.022466503	-0.026382069	-0.030614922	-0.035152908	-0.03997267	-0.045037689	-0.050296534	-0.055681554	-0.061108245	-0.066475571	-0.07166748	-0.076555814	-0.081004687	-0.084876259	-0.088037671	-0.090368683	-0.091769408	-0.092167424	-0.091523498	-0.089835256	-0.087138313	-0.08350465	-0.079038346	-0.073869084	-0.068144123	-0.062019559	-0.055651726	-0.049189502	-0.04276808	-0.036504518	-0.03049516	-0.024814775	-0.019517146	-0.014636748	-0.008199451	-0.010956435	-0.014043438	-0.017480999	-0.021285924	-0.025469488	-0.030035303	-0.034976898	-0.040275088	-0.045895272	-0.051784865	-0.057871149	-0.064059879	-0.070235038	-0.076260106	-0.081981177	-0.0872321	-0.091841647	-0.095642418	-0.098480927	-0.10022804	-0.100788747	-0.100110168	-0.098186797	-0.095062254	-0.090827182	-0.085613458	-0.079585309	-0.072928341	-0.065837705	-0.058506633	-0.051116415	-0.043828576	-0.03677964	-0.03007848	-0.023805997	-0.018016641	-0.012741228	-0.006154707	-0.008964253	-0.012143994	-0.015722551	-0.019725437	-0.024172982	-0.029077788	-0.03444172	-0.040252504	-0.046480071	-0.053072888	-0.059954625	-0.067021614	-0.07414164	-0.081154633	-0.08787579	-0.094101491	-0.09961812	-0.104213505	-0.107690303	-0.109880178	-0.110657353	-0.109949925	-0.107747456	-0.104103682	-0.099133815	-0.093006584	-0.085931934	-0.078145866	-0.069894235	-0.061417319	-0.052936706	-0.044645497	-0.036702271	-0.029228678	-0.022310133	-0.015998842	-0.010318309	-0.003769834	-0.00660164	-0.009845228	-0.013538924	-0.017719016	-0.022417437	-0.027658797	-0.033456724	-0.03980955	-0.046695465	-0.054067397	-0.061848037	-0.069925602	-0.078151074	-0.086337779	-0.094264117	-0.101680142	-0.108318281	-0.113908032	-0.118193758	-0.1209541	-0.122020942	-0.121295576	-0.118759814	-0.114480248	-0.108604763	-0.101351499	-0.092991594	-0.08382796	-0.074172838	-0.064326848	-0.054561736	-0.045108194	-0.036149166	-0.02781825	-0.020202214	-0.013346373	-0.007261582	-0.00101197	-0.003827207	-0.007096032	-0.010868195	-0.015193065	-0.020117142	-0.025680706	-0.031913481	-0.038829295	-0.046419783	-0.054647411	-0.063438255	-0.072675316	-0.082193347	-0.091776447	-0.101159709	-0.110036097	-0.118069262	-0.124912308	-0.130231548	-0.133733235	-0.135190352	-0.134465974	-0.131529741	-0.126464619	-0.119462435	-0.110808385	-0.100856494	-0.089999498	-0.078637353	-0.067148498	-0.055867094	-0.045068036	-0.034960064	-0.025685991	-0.017328341	-0.009918373	-0.003446636	0.002150668	-0.000599431	-0.003843453	-0.007644305	-0.012066896	-0.017175631	-0.02303078	-0.029683523	-0.037169509	-0.045500886	-0.054656986	-0.06457414	-0.075135505	-0.086162238	-0.097407761	-0.10855712	-0.119233376	-0.129012475	-0.137447041	-0.144098106	-0.148572152	-0.150559294	-0.149867434	-0.146447015	-0.140401871	-0.131983606	-0.1215696	-0.10962762	-0.096672425	-0.083220972	-0.069752591	-0.056678876	-0.044325654	-0.03292692	-0.022628724	-0.013500003	-0.005547153	0.001270355	0.005747176	0.003121645	-3.44E-05	-0.003798621	-0.008253932	-0.013486233	-0.019580713	-0.026616444	-0.034658888	-0.0437501	-0.053896611	-0.065055397	-0.077118895	-0.089900743	-0.103124667	-0.116419526	-0.129323695	-0.141301467	-0.151772811	-0.160155735	-0.16591787	-0.168631389	-0.168023492	-0.164014114	-0.15673359	-0.146515812	-0.13386666	-0.119412182	-0.103835056	-0.087809883	-0.071947382	-0.056754578	-0.042613935	-0.029780282	-0.018391536	-0.008488003	-3.53E-05	0.00705312	0.009801915	0.007372125	0.004381903	0.000737624	-0.003663907	-0.008933694	-0.015187195	-0.022538817	-0.031093636	-0.040935786	-0.052113188	-0.064618725	-0.078368781	-0.0931811	-0.108755217	-0.124659892	-0.140332663	-0.155096289	-0.16819517	-0.178851696	-0.186338403	-0.190057595	-0.189616797	-0.184886998	-0.176031811	-0.163499758	-0.14797851	-0.130317786	-0.111434618	-0.092218292	-0.073451206	-0.055756458	-0.039575504	-0.025172376	-0.012656696	-0.002016594	0.006846163	0.014084112	0.014331976	0.012181313	0.009450643	0.006029777	0.00179357	-0.003397342	-0.009694093	-0.017254607	-0.026235118	-0.036777128	-0.048988904	-0.062921027	-0.078536511	-0.095677526	-0.11403286	-0.133112462	-0.152237141	-0.170551728	-0.187068017	-0.200739212	-0.210561139	-0.215688529	-0.215548932	-0.209933853	-0.199047662	-0.183500418	-0.164241057	-0.14244074	-0.11934874	-0.09615004	-0.07385166	-0.053214446	-0.034733247	-0.018656723	-0.005031981	0.006241036	0.015356904	0.022560535	0.019344172	0.017568059	0.015207058	0.012134853	0.008203721	0.003243621	-0.002937071	-0.010548102	-0.01980973	-0.030939248	-0.044129783	-0.059519822	-0.077152959	-0.096929407	-0.118554048	-0.141489777	-0.164928629	-0.187794918	-0.208792615	-0.22650253	-0.239524516	-0.246648311	-0.247026971	-0.240321161	-0.226782496	-0.207251035	-0.183057519	-0.155843806	-0.127338566	-0.099139035	-0.072545483	-0.0484747	-0.02745247	-0.009664835	0.004959955	0.016663887	0.025782436	0.032686003	0.023536417	0.021671088	0.019095091	0.015639169	0.011102043	0.005248373	-0.002190721	-0.011512686	-0.023031527	-0.037055586	-0.053851738	-0.073593413	-0.096292281	-0.121718107	-0.149318087	-0.178154517	-0.206884864	-0.233807321	-0.256985327	-0.274447442	-0.284439554	-0.285690433	-0.277642165	-0.260594308	-0.235716877	-0.204908459	-0.170514914	-0.134970853	-0.100455836	-0.068649698	-0.040628947	-0.016894024	0.002517923	0.017887793	0.029677397	0.038421712	0.030070742	0.02884099	0.026929883	0.024150075	0.020271298	0.015014289	0.008046489	-0.001018203	-0.012612137	-0.027194198	-0.045211536	-0.067036412	-0.092873957	-0.122642683	-0.155840606	-0.191424327	-0.227741378	-0.262559129	-0.293219818	-0.316921815	-0.331093338	-0.333799697	-0.324112342	-0.30236125	-0.270190572	-0.230358866	-0.186291039	-0.1414866	-0.098959385	-0.060870109	-0.028419327	-0.001959923	0.01877201	0.034407086	0.045735339	0.053563528	0.037130472	0.036686187	0.035626215	0.033751738	0.030809798	0.026481872	0.020372543	0.012000587	0.000796634	-0.013885891	-0.03273675	-0.05641945	-0.085454081	-0.12004637	-0.159873062	-0.203860454	-0.250022645	-0.295441323	-0.336450327	-0.369033873	-0.389383187	-0.394517972	-0.382872714	-0.35474096	-0.312440763	-0.260056878	-0.202716936	-0.145575092	-0.092858565	-0.047307502	-0.010115217	0.018761367	0.040147596	0.055234271	0.065281139	0.071446402	0.045139821	0.045128062	0.04440994	0.04272141	0.039716387	0.034946178	0.027837882	0.017675799	0.003593775	-0.015407792	-0.040399517	-0.072388741	-0.112089015	-0.159588769	-0.213960394	-0.27291649	-0.332670319	-0.388139006	-0.433519222	-0.463127116	-0.472333728	-0.458469233	-0.421597749	-0.3649577	-0.294713485	-0.218777986	-0.144975173	-0.079323732	-0.025176397	0.016633379	0.047030181	0.067830566	0.08108167	0.088677543	0.055325662	0.056024956	0.055932453	0.054695323	0.051833823	0.046703242	0.038451436	0.02597915	0.00791911	-0.01733615	-0.051510176	-0.096161841	-0.152200244	-0.219215849	-0.294785417	-0.374056699	-0.449933762	-0.513953885	-0.557601837	-0.573684426	-0.557621255	-0.50873955	-0.431391821	-0.335042939	-0.23237806	-0.13574845	-0.053847467	0.009586863	0.054936629	0.084925515	0.103031078	0.112528047	0.066046144	0.06841603	0.07026717	0.071271278	0.070955944	0.068648187	0.063401625	0.053909657	0.038417503	0.014667437	-0.020051502	-0.068629781	-0.133491362	-0.215494565	-0.312557344	-0.41859653	-0.523576604	-0.614985174	-0.680075945	-0.707832623	-0.690456292	-0.625261804	-0.517420562	-0.381625751	-0.239265772	-0.110900609	-0.009193065	0.062815329	0.108706291	0.134654259	0.146731338	0.149793761	0.081309132	0.085425308	0.089133718	0.092025357	0.093472036	0.092521783	0.087753885	0.077092265	0.057599417	0.025330412	-0.024563527	-0.09714374	-0.196013608	-0.320648309	-0.46375846	-0.610765124	-0.742643294	-0.840407568	-0.887928228	-0.87243576	-0.78616032	-0.632687602	-0.434621059	-0.230655092	-0.057644361	0.066281182	0.142544038	0.182354489	0.198025566	0.199208755	0.100967414	0.107777286	0.114486913	0.120615951	0.125351161	0.127347135	0.124424256	0.113141186	0.088273231	0.042398544	-0.033824985	-0.149578898	-0.308936002	-0.504225091	-0.713152303	-0.904981617	-1.051515537	-1.131702557	-1.126988747	-1.017749181	-0.795807176	-0.493170757	-0.187364788	0.048268215	0.190959104	0.258746416	0.279610193	0.275331958	0.126488075	0.137475544	0.149067864	0.160784432	0.171652301	0.179818062	0.181885625	0.171854247	0.139646798	0.06980082	-0.05748936	-0.258540295	-0.529457774	-0.83329746	-1.11414296	-1.329382147	-1.459708034	-1.487259911	-1.369274464	-1.049527839	-0.554040703	-0.063163192	0.254344375	0.391552707	0.420446857	0.400511814	0.159816695	0.177317905	0.196927098	0.218413862	0.240889589	0.262052676	0.276663498	0.273622673	0.231124548	0.111716195	-0.131821586	-0.517812639	-0.979553324	-1.393891051	-1.692515957	-1.885490293	-1.987917943	-1.934713691	-1.516002359	-0.607387938	0.271925059	0.651809973	0.695844418	0.625913939	0.231092411	0.263970941	0.30282203	0.347855746	0.397382761	0.444245322	0.466741307	0.408591428	0.154291628	-0.416776831	-1.186696541	-1.805460438	-2.16164969	-2.388898402	-2.61554467	-2.850973283	-2.640384783	-0.611723168	1.259643613	1.367003492	0.30348225	0.358308311	0.4283902	0.518655476	0.633902187	0.771935768	0.89252613	0.799404884	-0.046055225	-1.616895164	-2.523005139	-2.75138384	-2.877327412	-3.185527416	-3.955547415	-5.883549198	0.1021058	4.105168058	0.614254667	0.796399298	1.07448358	1.51877732	2.174235374	1.706139693	-3.370041743	-3.899007733	-3.379388718	-3.183048088	-3.355202976	-4.073905872
-0.031047216	-0.03214852	-0.033184853	-0.034141573	-0.035003636	-0.035755881	-0.036383354	-0.036871677	-0.037207442	-0.03737862	-0.037374971	-0.037188434	-0.028397299	-0.029734259	-0.031049504	-0.032329546	-0.033559691	-0.034724178	-0.035806381	-0.036789066	-0.037654717	-0.038385914	-0.038965763	-0.039378374	-0.039609355	-0.039646315	-0.03947935	-0.03910149	-0.038509067	-0.037702003	-0.027840816	-0.029314622	-0.030785124	-0.032239062	-0.033661594	-0.035036374	-0.036345685	-0.037570657	-0.038691545	-0.039688096	-0.040539987	-0.041227337	-0.041731271	-0.042034526	-0.042122072	-0.041981716	-0.041604665	-0.040986005	-0.040125074	-0.039025689	-0.025458074	-0.027026373	-0.028622199	-0.030234981	-0.031852287	-0.033459772	-0.035041165	-0.036578329	-0.038051385	-0.039438931	-0.040718348	-0.041866205	-0.042858767	-0.043672594	-0.044285219	-0.044675882	-0.044826301	-0.044721428	-0.04435016	-0.043705965	-0.042787361	-0.04159823	-0.040147933	-0.038451188	-0.024300188	-0.025951207	-0.027649563	-0.029386316	-0.031150494	-0.03292895	-0.03470626	-0.036464673	-0.038184134	-0.039842389	-0.041415197	-0.042876658	-0.044199656	-0.045356443	-0.046319339	-0.047061541	-0.047558023	-0.047786482	-0.047728298	-0.047369431	-0.046701235	-0.045721092	-0.04443284	-0.04284694	-0.040980365	-0.038856187	-0.022909461	-0.024619572	-0.026396692	-0.028234016	-0.030122644	-0.032051348	-0.034006369	-0.035971259	-0.037926766	-0.039850811	-0.041718558	-0.043502606	-0.04517332	-0.046699325	-0.048048155	-0.049187072	-0.050084037	-0.050708799	-0.051034076	-0.051036752	-0.050699042	-0.050009535	-0.048964044	-0.047566189	-0.045827649	-0.043768054	-0.041414496	-0.03880068	-0.021300311	-0.023043121	-0.024871639	-0.026781621	-0.028766778	-0.030818474	-0.032925432	-0.035073452	-0.037245166	-0.039419857	-0.041573354	-0.04367805	-0.045703052	-0.047614506	-0.04937612	-0.050949892	-0.052297053	-0.053379228	-0.054159758	-0.054605162	-0.05468666	-0.054381661	-0.053675128	-0.052560715	-0.051041559	-0.049130667	-0.046850818	-0.044233978	-0.041320238	-0.038156334	-0.019493593	-0.021240882	-0.023090782	-0.025041901	-0.027090985	-0.029232559	-0.031458554	-0.033757927	-0.036116279	-0.038515518	-0.040933563	-0.043344147	-0.045716739	-0.048016633	-0.050205241	-0.052240626	-0.054078298	-0.055672305	-0.056976593	-0.057946625	-0.05854119	-0.058724332	-0.05846727	-0.057750195	-0.056563786	-0.054910309	-0.052804186	-0.050271937	-0.047351477	-0.044090773	-0.040545955	-0.036779012	-0.019238813	-0.021078585	-0.023036912	-0.02511383	-0.027307427	-0.029613422	-0.032024698	-0.034530823	-0.037117553	-0.039766363	-0.042454016	-0.04515223	-0.047827471	-0.050440934	-0.052948768	-0.055302591	-0.057450344	-0.059337521	-0.060908766	-0.062109834	-0.062889842	-0.063203709	-0.063014651	-0.062296543	-0.061035968	-0.059233741	-0.056905746	-0.054082958	-0.050810593	-0.047146406	-0.043158253	-0.038921101	-0.017068934	-0.018866875	-0.020797476	-0.022864129	-0.025068684	-0.027411	-0.029888451	-0.032495359	-0.035222399	-0.038055961	-0.040977519	-0.043963028	-0.046982402	-0.049999132	-0.052970099	-0.055845683	-0.058570206	-0.061082817	-0.063318846	-0.06521167	-0.06669507	-0.06770602	-0.068187798	-0.068093213	-0.06738775	-0.066052338	-0.064085481	-0.061504496	-0.058345668	-0.054663232	-0.050527198	-0.046020184	-0.041233488	-0.036262756	-0.014768086	-0.016493632	-0.018362086	-0.020380058	-0.022553116	-0.024885362	-0.027378933	-0.030033414	-0.032845174	-0.035806632	-0.038905451	-0.042123713	-0.045437098	-0.048814111	-0.052215459	-0.055593628	-0.058892782	-0.062049083	-0.064991532	-0.067643432	-0.069924523	-0.071753799	-0.073052964	-0.073750371	-0.073785246	-0.07311186	-0.071703317	-0.069554543	-0.066684113	-0.063134646	-0.058971589	-0.05428043	-0.049162524	-0.043729896	-0.038099509	-0.032387511	-0.014001404	-0.015775309	-0.017707607	-0.019807312	-0.022082588	-0.024540294	-0.027185422	-0.030020439	-0.033044502	-0.036252573	-0.039634427	-0.043173588	-0.046846232	-0.050620106	-0.054453567	-0.058294823	-0.062081525	-0.065740842	-0.069190181	-0.072338686	-0.075089628	-0.077343742	-0.079003476	-0.079977998	-0.080188699	-0.079574796	-0.078098512	-0.075749312	-0.072546618	-0.068540591	-0.06381072	-0.058462204	-0.052620408	-0.046423912	-0.040016835	-0.033541194	-0.013085794	-0.014898514	-0.016885582	-0.01905878	-0.021429324	-0.024007383	-0.026801474	-0.029817721	-0.033058961	-0.036523691	-0.04020487	-0.044088574	-0.048152563	-0.052364814	-0.056682107	-0.061048808	-0.065396003	-0.069641176	-0.07368866	-0.077431054	-0.080751822	-0.083529171	-0.085641235	-0.086972425	-0.08742062	-0.086904693	-0.085371672	-0.082802761	-0.079217404	-0.074674722	-0.0692719	-0.063139479	-0.056433913	-0.04932814	-0.042001188	-0.03462793	-0.010344059	-0.012007828	-0.013847341	-0.015877335	-0.018112731	-0.020568274	-0.023258046	-0.026194827	-0.029389292	-0.032849008	-0.036577217	-0.040571403	-0.044821641	-0.049308763	-0.054002402	-0.05885901	-0.063820012	-0.068810282	-0.073737213	-0.078490669	-0.082944136	-0.086957391	-0.090380907	-0.093062102	-0.094853354	-0.095621389	-0.095257435	-0.093687169	-0.090879355	-0.086851948	-0.081674629	-0.075467053	-0.068392674	-0.060648636	-0.05245282	-0.044029587	-0.035595863	-0.027349099	-0.009091317	-0.010754193	-0.012605722	-0.01466366	-0.016946428	-0.019472785	-0.022261354	-0.025329984	-0.028694899	-0.032369609	-0.036363536	-0.040680347	-0.045315958	-0.050256247	-0.055474506	-0.060928745	-0.066559008	-0.072284944	-0.078003955	-0.083590332	-0.088895826	-0.093752142	-0.097975747	-0.101375284	-0.103761586	-0.104959927	-0.10482374	-0.103248515	-0.100184283	-0.095644861	-0.089712206	-0.082534705	-0.074319022	-0.065316204	-0.055803626	-0.046065147	-0.036371976	-0.026966537	-0.00766696	-0.009312056	-0.011157809	-0.013225214	-0.015536518	-0.018114959	-0.020984337	-0.02416841	-0.027690039	-0.03157004	-0.035825689	-0.040468824	-0.045503504	-0.050923213	-0.056707628	-0.062819041	-0.069198598	-0.07576264	-0.082399522	-0.088967469	-0.095294084	-0.101178225	-0.106394954	-0.110704068	-0.113862462	-0.115640042	-0.115838262	-0.114309639	-0.110975932	-0.105842259	-0.09900451	-0.090648051	-0.081036948	-0.070494588	-0.059378139	-0.048050469	-0.036853477	-0.026086264	-0.006061775	-0.007669498	-0.009488458	-0.011543036	-0.013859573	-0.016466194	-0.019392483	-0.02266895	-0.026326228	-0.030393929	-0.034899073	-0.039864006	-0.045303731	-0.051222582	-0.057610227	-0.064437043	-0.071649013	-0.079162427	-0.086858854	-0.094581064	-0.102130745	-0.109269069	-0.115721192	-0.121185663	-0.12534938	-0.127908062	-0.128591278	-0.127189931	-0.123582925	-0.117758916	-0.10982889	-0.100026105	-0.088691834	-0.076247969	-0.063160237	-0.049897778	-0.036895382	-0.024523707	-0.004268051	-0.005816042	-0.007583817	-0.009599202	-0.011892793	-0.014497923	-0.017450482	-0.02078852	-0.024551577	-0.028779614	-0.033511462	-0.038782638	-0.044622406	-0.051049956	-0.058069594	-0.065664937	-0.073792174	-0.082372682	-0.091285479	-0.100360326	-0.109372621	-0.118041522	-0.12603298	-0.13296935	-0.138446903	-0.142061788	-0.14344366	-0.142294435	-0.138427667	-0.131802376	-0.122544411	-0.11094935	-0.097463725	-0.082645707	-0.067111103	-0.051474012	-0.036292436	-0.022027303	-0.002280095	-0.003743255	-0.005432031	-0.007377621	-0.009614904	-0.012182593	-0.015123259	-0.018483157	-0.022311773	-0.026660956	-0.031583505	-0.037131025	-0.043350848	-0.050281818	-0.057948706	-0.066355139	-0.075474988	-0.085242393	-0.095540903	-0.106192631	-0.11694884	-0.127483927	-0.13739527	-0.146211612	-0.153412524	-0.158460543	-0.160845895	-0.160141074	-0.156059266	-0.148507424	-0.137622783	-0.123782194	-0.10757777	-0.089759597	-0.071154715	-0.05257803	-0.034752508	-0.01825238	-9.48E-05	-0.001445429	-0.003024047	-0.00486499	-0.007007259	-0.009494909	-0.012377351	-0.015709485	-0.019551581	-0.02396876	-0.029029899	-0.034805729	-0.041365842	-0.048774282	-0.057083352	-0.066325329	-0.076501816	-0.087570722	-0.099431209	-0.111907484	-0.124733103	-0.137538329	-0.149844002	-0.161066101	-0.170535364	-0.177535552	-0.181361891	-0.181397456	-0.177200053	-0.168586182	-0.155693938	-0.139005894	-0.119318624	-0.097657892	-0.07515413	-0.052905237	-0.03185702	-0.012724122	0.002287756	0.001079681	-0.000354518	-0.002051878	-0.004055127	-0.006413356	-0.009182657	-0.012426675	-0.016216954	-0.020632943	-0.025761451	-0.031695274	-0.038530614	-0.046362842	-0.055280048	-0.065353788	-0.076626467	-0.08909497	-0.10269054	-0.117255599	-0.132519226	-0.148074387	-0.163361572	-0.17766502	-0.190128662	-0.199798729	-0.205697837	-0.206930502	-0.202812048	-0.193002271	-0.177614822	-0.157268192	-0.133050753	-0.106393266	-0.078872126	-0.051991798	-0.027001441	-0.004784953	0.004863697	0.003830077	0.002577225	0.001066063	-0.000749186	-0.002921993	-0.005514572	-0.008598938	-0.012257867	-0.016585636	-0.021688302	-0.027683224	-0.034697362	-0.042863763	-0.052315457	-0.063175827	-0.075544444	-0.089477391	-0.104961451	-0.12188229	-0.13998806	-0.15885183	-0.177838743	-0.196086564	-0.212510687	-0.225845813	-0.234735169	-0.237872721	-0.234192658	-0.223082669	-0.204575933	-0.179460425	-0.149247819	-0.115979266	-0.08190456	-0.049125037	-0.019304826	0.006480001	0.007624752	0.006798743	0.005766164	0.004486809	0.002912854	0.000987508	-0.001356501	-0.004198565	-0.007631926	-0.011765348	-0.016724547	-0.022653043	-0.02971194	-0.038077911	-0.047938375	-0.059482546	-0.072886716	-0.088291981	-0.10577271	-0.125294752	-0.146663879	-0.16946756	-0.19301692	-0.216300346	-0.237964937	-0.256345721	-0.269563565	-0.275708633	-0.273113079	-0.260689689	-0.238271291	-0.206841828	-0.168536693	-0.126344576	-0.083564774	-0.043196602	-0.007471135	0.022347303	0.010557714	0.00997291	0.009200613	0.008200666	0.006924545	0.005313651	0.003297318	0.000790512	-0.002308763	-0.00612228	-0.010794476	-0.016495132	-0.023421348	-0.031798023	-0.041875645	-0.053923659	-0.068217065	-0.085013306	-0.10451618	-0.126823764	-0.151858789	-0.179283067	-0.208402832	-0.238079025	-0.266664865	-0.29200084	-0.31150302	-0.322381665	-0.322017578	-0.30849024	-0.281178588	-0.241248626	-0.191766401	-0.137243132	-0.082677055	-0.032456522	0.010424484	0.044597432	0.013643998	0.013333421	0.012861323	0.012189028	0.011269006	0.010042846	0.00843879	0.006368764	0.003724858	0.000375227	-0.003840535	-0.009116368	-0.015684683	-0.023820531	-0.033843715	-0.046116817	-0.061036087	-0.079010879	-0.100426186	-0.12558214	-0.154605085	-0.187328157	-0.22314613	-0.260860022	-0.298540265	-0.333450925	-0.36208986	-0.380411268	-0.384304545	-0.370383613	-0.337038075	-0.285464329	-0.220122714	-0.148072887	-0.077194184	-0.014091748	0.037263704	0.075696681	0.016854262	0.016720766	0.016423315	0.015917394	0.015147234	0.014042941	0.012516922	0.010459456	0.007733275	0.004167044	-0.000452279	-0.006388052	-0.013963028	-0.023567787	-0.035666458	-0.05079617	-0.069554596	-0.092567463	-0.120425423	-0.153578546	-0.19217894	-0.23587011	-0.283537108	-0.333052536	-0.381074965	-0.422974365	-0.452981273	-0.464700534	-0.452184966	-0.41170395	-0.343917035	-0.255334196	-0.157495045	-0.063457966	0.016511821	0.077376795	0.020502327	0.020742682	0.020864212	0.020827688	0.020582827	0.020065157	0.019191967	0.017857125	0.015924449	0.013219344	0.00951835	0.004536408	-0.002088165	-0.010810429	-0.022195693	-0.036933059	-0.055839212	-0.079841696	-0.109925441	-0.147021171	-0.191812763	-0.244448151	-0.304159984	-0.368837034	-0.434622373	-0.495631512	-0.543892377	-0.569684706	-0.56269934	-0.514720001	-0.42409363	-0.300082893	-0.162585229	-0.034693683	0.067080806	0.137228734	0.02423749	0.024882002	0.025461342	0.025943978	0.026288223	0.026439028	0.026323707	0.02584628	0.024879976	0.023257331	0.020757207	0.017087949	0.011865938	0.004589047	-0.005394633	-0.018920628	-0.037038663	-0.061027914	-0.09237512	-0.132681302	-0.183451806	-0.245725111	-0.31952333	-0.403169392	-0.492588182	-0.580724876	-0.657130877	-0.707734562	-0.715285484	-0.662337141	-0.539676301	-0.358938271	-0.156776893	0.022245787	0.150768856	0.226181137	0.029085222	0.030153508	0.031196458	0.032184159	0.033075193	0.033812485	0.034317617	0.034483006	0.034161176	0.033150015	0.031172633	0.027850043	0.02266465	0.014912663	0.003644635	-0.012403412	-0.034878452	-0.06585448	-0.107804579	-0.163422789	-0.23519456	-0.324635392	-0.43122712	-0.551267032	-0.676933731	-0.795581467	-0.888639864	-0.929552549	-0.883337134	-0.718285532	-0.440866439	-0.124261726	0.134394545	0.289942121	0.034869621	0.0365023	0.038174194	0.039861599	0.041528645	0.043122154	0.044564297	0.045742085	0.046492283	0.046579738	0.045666262	0.043266199	0.038683638	0.030925522	0.018585825	-0.000298537	-0.028403628	-0.069234729	-0.127088029	-0.206659213	-0.312058448	-0.445139836	-0.603523955	-0.779213062	-0.95828955	-1.119998138	-1.230657606	-1.229251851	-1.023101261	-0.567598916	-0.021993459	0.360911396	0.039530384	0.041767532	0.044146733	0.046665539	0.04931432	0.052072323	0.054901749	0.057738853	0.060480487	0.062963699	0.064934697	0.066001547	0.065562192	0.062695639	0.056000108	0.043360074	0.021631961	-0.013726284	-0.068959319	-0.151931963	-0.271076551	-0.432771587	-0.637488367	-0.877105067	-1.13651145	-1.39791167	-1.63644256	-1.782629216	-1.620477825	-0.811582298	0.293897657	0.834762181	0.046889977	0.049978505	0.053337701	0.056988014	0.060946865	0.065225143	0.06982141	0.07471241	0.079837518	0.085073261	0.090191403	0.094789814	0.09817818	0.099189545	0.09587282	0.085004718	0.061360814	0.016766928	-0.060737061	-0.186536598	-0.375806571	-0.635258233	-0.95494676	-1.312373819	-1.693310214	-2.111770425	-2.595694509	-2.968849269	-1.587633756	1.491790481	0.055539476	0.059718282	0.064352141	0.069500025	0.07522707	0.081603271	0.088700184	0.096583966	0.10530164	0.114854942	0.125151247	0.135912011	0.146501998	0.155610814	0.160662165	0.15674008	0.134742602	0.078630731	-0.037174643	-0.245512444	-0.57007269	-0.996426391	-1.470208533	-1.956150159	-2.509622096	-3.352730548	-5.270087898	-11.41364718	0.065644894	0.0712033	0.077474885	0.084580199	0.092663694	0.101898225	0.11248957	0.124679768	0.138746541	0.154992607	0.173711216	0.195097518	0.219037943	0.244624704	0.269051615	0.285142498	0.276072438	0.205637705	0.007988689	-0.393984331	-0.993478336	-1.632162612	-2.174567506	-2.676501789	-3.347571317	-4.520282655	0.07734457	0.084619983	0.092959881	0.102578593	0.113745588	0.126802513	0.142186077	0.160458608	0.182348093	0.208798063	0.241021871	0.280536673	0.329092535	0.388227208	0.457598074	0.529425259	0.571084793	0.47833358	0.016259122	-0.955912905	-1.932182348	-2.455305956	-2.697287681	-2.846855352	0.100069818	0.110957077	0.123718652	0.138809488	0.156830731	0.178589447	0.205188395	0.238163893	0.279702201	0.332985816	0.402754034	0.496197403	0.624241934	0.802446357	1.04484115	1.304720936	1.105066101	-0.934035347	-2.838373769	-2.995144144	0.117478519	0.131386309	0.147919576	0.167785916	0.191950234	0.221757025	0.259127224	0.306887437	0.369346061	0.453358199	0.570431258	0.741257207	1.006597316	1.457460618	2.335001549	4.334947085	-1.606815652	-5.583481333	0.174504436	0.199761195	0.23090688	0.269935225	0.319773146	0.384870413	0.472287563	0.593844621	0.770747876	1.044736675	1.509269933	2.415474191
-0.034321071	-0.035899816	-0.037464118	-0.038996364	-0.040476456	-0.041881821	-0.043187517	-0.04436646	-0.045389782	-0.046227351	-0.04684845	-0.047222633	-0.030356056	-0.032033938	-0.03374853	-0.035489011	-0.037242103	-0.038991847	-0.040719409	-0.042402946	-0.044017544	-0.045535277	-0.046925388	-0.048154644	-0.049187881	-0.049988759	-0.050520742	-0.050748296	-0.050638279	-0.050161483	-0.029262767	-0.031027708	-0.032852076	-0.034727686	-0.036643891	-0.038587257	-0.040541253	-0.042485967	-0.044397866	-0.046249656	-0.04801024	-0.049644842	-0.051115323	-0.052380731	-0.053398123	-0.054123674	-0.054514086	-0.054528271	-0.054129272	-0.053286318	-0.026175196	-0.027913742	-0.02973626	-0.031639575	-0.033618562	-0.035665784	-0.037771092	-0.039921215	-0.042099339	-0.044284706	-0.046452259	-0.048572356	-0.050610619	-0.052527941	-0.054280734	-0.055821442	-0.057099409	-0.058062109	-0.058656785	-0.058832477	-0.058542399	-0.057746557	-0.056414473	-0.054527815	-0.024582394	-0.02633114	-0.028179947	-0.030128634	-0.032175385	-0.034316363	-0.036545275	-0.038852888	-0.041226513	-0.043649461	-0.046100495	-0.048553313	-0.050976097	-0.053331181	-0.055574901	-0.0576577	-0.059524572	-0.061115913	-0.062368858	-0.063219156	-0.063603584	-0.063462879	-0.06274507	-0.061409036	-0.059428042	-0.056792924	-0.022813281	-0.024543489	-0.026386806	-0.028346	-0.030422608	-0.032616559	-0.034925742	-0.037345489	-0.039868005	-0.04248173	-0.045170651	-0.047913576	-0.050683421	-0.053446532	-0.056162117	-0.05878186	-0.061249814	-0.063502676	-0.065470565	-0.067078412	-0.068248044	-0.068901032	-0.068962273	-0.068364214	-0.067051508	-0.064985766	-0.062150003	-0.058552242	-0.020900218	-0.022584432	-0.024391323	-0.026326393	-0.028394375	-0.030598898	-0.03294208	-0.035424037	-0.038042307	-0.040791171	-0.043660891	-0.046636852	-0.049698639	-0.052819068	-0.055963231	-0.059087613	-0.06213937	-0.065055906	-0.067764867	-0.070184723	-0.072226117	-0.073794112	-0.074791472	-0.075122996	-0.074700843	-0.073450603	-0.071317718	-0.068273678	-0.064321273	-0.059498167	-0.018878139	-0.020491212	-0.022232823	-0.024110851	-0.026132886	-0.02830596	-0.030636199	-0.033128397	-0.035785481	-0.038607862	-0.04159267	-0.044732844	-0.0480161	-0.05142377	-0.054929541	-0.058498151	-0.062084094	-0.065630458	-0.069068025	-0.072314831	-0.075276384	-0.077846806	-0.079911127	-0.081348952	-0.082039625	-0.081868874	-0.08073671	-0.078566091	-0.075311595	-0.070967097	-0.065571326	-0.05921023	-0.018303031	-0.019953656	-0.021744751	-0.023686282	-0.025788193	-0.028060158	-0.030511232	-0.033149414	-0.035981083	-0.039010297	-0.042237936	-0.045660655	-0.049269663	-0.053049306	-0.056975465	-0.061013829	-0.065118093	-0.069228198	-0.073268793	-0.077148117	-0.080757622	-0.08397265	-0.086654553	-0.088654612	-0.089820034	-0.090002141	-0.089066569	-0.08690495	-0.083447081	-0.078672176	-0.072617531	-0.065382887	-0.016059396	-0.017597294	-0.019275659	-0.021106244	-0.023101287	-0.025273347	-0.027635075	-0.030198892	-0.032976561	-0.035978613	-0.039213611	-0.042687218	-0.046401035	-0.050351187	-0.054526629	-0.058907183	-0.06346131	-0.068143688	-0.072892696	-0.077628003	-0.082248498	-0.086630956	-0.090629882	-0.094079082	-0.096795535	-0.098586103	-0.099257403	-0.098628858	-0.096548368	-0.092909402	-0.087667562	-0.080854109	-0.072583743	-0.06305434	-0.013798578	-0.015206515	-0.01675119	-0.018445523	-0.020303335	-0.022339294	-0.024568798	-0.027007795	-0.0296725	-0.032579004	-0.03574272	-0.039177646	-0.042895385	-0.046903896	-0.051205905	-0.055796953	-0.060663034	-0.065777824	-0.071099523	-0.076567415	-0.082098307	-0.087583155	-0.092884308	-0.097833958	-0.10223458	-0.105862213	-0.108473496	-0.109817215	-0.109650699	-0.107760701	-0.10398737	-0.098248699	-0.090561726	-0.081056164	-0.069976465	-0.057669896	-0.012821766	-0.014217049	-0.01575558	-0.017452049	-0.019322402	-0.021383848	-0.023654806	-0.026154789	-0.028904201	-0.031924004	-0.035235228	-0.038858268	-0.042811919	-0.047112071	-0.051770004	-0.056790201	-0.062167606	-0.067884278	-0.073905415	-0.080174807	-0.086609852	-0.09309643	-0.099484129	-0.10558255	-0.111159709	-0.115943794	-0.119629748	-0.121892075	-0.1224049	-0.120869426	-0.117047398	-0.110797245	-0.102107459	-0.091120258	-0.078138614	-0.063611849	-0.011715361	-0.013084539	-0.014602245	-0.016284901	-0.018150581	-0.020219077	-0.02251194	-0.025052452	-0.027865528	-0.030977485	-0.034415661	-0.038207808	-0.042381198	-0.046961347	-0.051970266	-0.05742411	-0.063330119	-0.069682711	-0.076458658	-0.083611287	-0.091063788	-0.098701863	-0.106366203	-0.113845634	-0.120872194	-0.127119893	-0.132209353	-0.135720769	-0.137217407	-0.13628089	-0.132557495	-0.125811519	-0.115978016	-0.103203826	-0.08786472	-0.070549232	-0.009283395	-0.01047554	-0.011803762	-0.013284234	-0.014935019	-0.016776237	-0.01883023	-0.021121698	-0.023677792	-0.02652815	-0.029704824	-0.033242052	-0.037175826	-0.041543149	-0.046380898	-0.051724139	-0.057603746	-0.064043134	-0.071053907	-0.078630215	-0.086741652	-0.095324632	-0.104272335	-0.113423621	-0.122551756	-0.131354411	-0.139447194	-0.146363843	-0.151566981	-0.154473626	-0.154498903	-0.151118948	-0.143949293	-0.132828379	-0.117888811	-0.099594859	-0.07872739	-0.056308991	-0.007965584	-0.009099927	-0.01037105	-0.011796255	-0.013395073	-0.015189512	-0.017204321	-0.019467246	-0.022009272	-0.024864828	-0.028071908	-0.031672078	-0.035710287	-0.040234392	-0.045294284	-0.050940435	-0.057221667	-0.064181894	-0.071855521	-0.080261155	-0.089393299	-0.099211708	-0.10962826	-0.120491498	-0.1315695	-0.142532563	-0.152938364	-0.162223727	-0.169708816	-0.174620914	-0.176145199	-0.17350757	-0.166088304	-0.153554192	-0.135982704	-0.11394026	-0.088476735	-0.061016817	-0.006526601	-0.007587866	-0.008784626	-0.010135076	-0.011659962	-0.013382918	-0.015330837	-0.017534267	-0.020027821	-0.022850582	-0.026046474	-0.029664563	-0.033759205	-0.038389966	-0.043621166	-0.049520867	-0.056159053	-0.063604681	-0.071921174	-0.081159863	-0.091350771	-0.102490134	-0.114524098	-0.127328255	-0.140683237	-0.154247497	-0.167529985	-0.179867648	-0.190415701	-0.198161892	-0.201978551	-0.200725738	-0.193411874	-0.179401292	-0.158631182	-0.131771857	-0.100253277	-0.066108058	-0.004968405	-0.005940683	-0.007044935	-0.008299943	-0.009727325	-0.011351969	-0.013202519	-0.015311911	-0.017717974	-0.020464065	-0.023599733	-0.027181372	-0.031272811	-0.035945746	-0.041279899	-0.047362685	-0.054288133	-0.062154659	-0.071061172	-0.081100829	-0.092351555	-0.104862316	-0.118634002	-0.13359384	-0.149562657	-0.1662152	-0.18303549	-0.199272218	-0.213903761	-0.225628678	-0.232904655	-0.234063853	-0.227529133	-0.212133951	-0.187500947	-0.154368193	-0.114705292	-0.071492595	-0.003294911	-0.004161935	-0.005154961	-0.006292977	-0.007598048	-0.00909583	-0.010816172	-0.012793804	-0.01506913	-0.017689113	-0.020708263	-0.024189702	-0.028206269	-0.032841612	-0.038191132	-0.044362618	-0.051476281	-0.059663777	-0.069065607	-0.07982605	-0.092084472	-0.105961501	-0.121538221	-0.138826249	-0.157726588	-0.177975699	-0.199078833	-0.220234023	-0.240256174	-0.257520583	-0.269959536	-0.275162322	-0.270639544	-0.25429629	-0.225085806	-0.18367328	-0.132788553	-0.076942405	-0.001512146	-0.002257621	-0.003120506	-0.004119554	-0.005276757	-0.006617943	-0.008173476	-0.009979094	-0.012076884	-0.014516428	-0.017356126	-0.020664707	-0.02452292	-0.029025382	-0.034282497	-0.040422325	-0.047592139	-0.055959291	-0.065710751	-0.077050363	-0.090192442	-0.105349731	-0.122713059	-0.142419292	-0.164503502	-0.188831017	-0.215005797	-0.242254216	-0.269289688	-0.294176168	-0.314231331	-0.32604634	-0.325743927	-0.309619624	-0.275235939	-0.222769129	-0.155977882	-0.081946356	0.000371628	-0.000236353	-0.000950426	-0.001788611	-0.002772237	-0.003926599	-0.00528175	-0.006873455	-0.008744348	-0.010945305	-0.013537106	-0.016592388	-0.020197955	-0.024457448	-0.029494371	-0.035455428	-0.042513988	-0.05087341	-0.060769639	-0.072472172	-0.086281874	-0.102523365	-0.121528585	-0.143606741	-0.168994259	-0.197776729	-0.229773768	-0.264378193	-0.300344821	-0.33553555	-0.36665431	-0.389062681	-0.396871854	-0.383646699	-0.344102885	-0.276793713	-0.186685362	-0.085392733	0.002345856	0.001890549	0.001343217	0.000687115	-9.78E-05	-0.001035414	-0.002154606	-0.003489997	-0.005083387	-0.006985306	-0.009256955	-0.011972579	-0.015222367	-0.019115943	-0.023786561	-0.029396042	-0.03614045	-0.044256395	-0.054027599	-0.065791011	-0.079941104	-0.09693003	-0.117259816	-0.141460718	-0.170047022	-0.203438189	-0.241829352	-0.284991692	-0.331981131	-0.380736291	-0.427562832	-0.466558144	-0.489192554	-0.484627137	-0.441871504	-0.354850584	-0.229166939	-0.084823888	0.004397693	0.004109028	0.00374509	0.00329097	0.002728659	0.002036349	0.001187553	0.000150014	-0.001115665	-0.002657738	-0.004535467	-0.006821829	-0.009606908	-0.013002135	-0.017145578	-0.022208476	-0.028403237	-0.035993037	-0.045303046	-0.056732991	-0.070770185	-0.088001147	-0.109118217	-0.134914873	-0.166259471	-0.204031547	-0.248997684	-0.301595258	-0.361581913	-0.427495001	-0.495847377	-0.559980268	-0.608597306	-0.624540697	-0.585951341	-0.474310403	-0.291732772	-0.074506756	0.006512082	0.00640236	0.006236632	0.006002385	0.005684315	0.005263645	0.004717276	0.004016702	0.00312663	0.002003221	0.000591828	-0.001175891	-0.003385705	-0.0061456	-0.009591954	-0.013897463	-0.019281278	-0.026021878	-0.034473188	-0.045084384	-0.058423429	-0.075203585	-0.096310513	-0.122824587	-0.156028126	-0.197379638	-0.248426477	-0.310613591	-0.384928622	-0.471296668	-0.567579027	-0.667890514	-0.759704397	-0.819205009	-0.806493014	-0.671396016	-0.393037449	-0.039705743	0.00867192	0.008751325	0.00879623	0.008797052	0.008741855	0.008615745	0.008400082	0.008071476	0.007600482	0.006949901	0.006072574	0.004908475	0.003380896	0.001391401	-0.001186844	-0.00451794	-0.008815006	-0.014355775	-0.02150315	-0.030732114	-0.042664402	-0.058112086	-0.078130186	-0.104075841	-0.137666419	-0.181019765	-0.236645488	-0.307337286	-0.395895929	-0.504591946	-0.634228946	-0.782460179	-0.940253442	-1.083369484	-1.152905133	-1.029390125	-0.58425478	0.064080656	0.010858301	0.011134481	0.011399523	0.011647247	0.011869692	0.012056615	0.012194834	0.012267362	0.012252276	0.012121209	0.011837345	0.011352747	0.010604737	0.009511024	0.007963051	0.005816924	0.002880946	-0.001101529	-0.006475728	-0.013707983	-0.023430264	-0.036500508	-0.054082766	-0.077750183	-0.109609884	-0.152439474	-0.209806691	-0.286116147	-0.386499115	-0.516463333	-0.681289312	-0.885238211	-1.130176322	-1.409955527	-1.682284796	-1.751518668	-1.056817672	0.414174292	0.013528544	0.014019843	0.014522346	0.015032566	0.015545563	0.016054462	0.016549802	0.017018664	0.017443483	0.017800431	0.018057207	0.018169972	0.018079107	0.017703262	0.016930991	0.015608876	0.013524588	0.01038258	0.005769066	-0.000898533	-0.010444443	-0.024038777	-0.043344311	-0.070717005	-0.109465353	-0.164153774	-0.240892015	-0.347487684	-0.493308771	-0.688894672	-0.946109582	-1.281181902	-1.724819904	-2.341917851	-3.196978301	-3.02955207	0.015908872	0.016628779	0.017389489	0.018192344	0.019038184	0.01992708	0.020857958	0.021828069	0.022832236	0.023861799	0.024903092	0.025935283	0.026927248	0.027833042	0.028585283	0.029085399	0.02918914	0.02868487	0.027260787	0.02445504	0.019579449	0.011602604	-0.001028601	-0.020657826	-0.050812201	-0.096742662	-0.166080895	-0.269439038	-0.420540839	-0.635406649	-0.931196903	-1.329266817	-1.875593759	-2.71691237	-4.451630972	-12.40543031	0.018250025	0.019196863	0.020214405	0.021309011	0.022487562	0.023757443	0.025126487	0.026602847	0.02819478	0.029910267	0.031756403	0.033738407	0.03585807	0.038111303	0.040484281	0.042947365	0.045445465	0.047882675	0.050097545	0.051822922	0.052620119	0.051770061	0.048092198	0.039643109	0.023219982	-0.006432363	-0.057798221	-0.144057093	-0.284122344	-0.501286717	-0.816939121	-1.241764654	-1.779135604	-2.452404537	-3.264811689	-2.935688963	0.021694328	0.022962346	0.024341819	0.025845686	0.027488701	0.029287719	0.031262012	0.03343363	0.035827791	0.038473298	0.041402928	0.044653758	0.048267278	0.052289086	0.056767759	0.061752164	0.067285884	0.073396347	0.080074166	0.087234337	0.09464344	0.10178253	0.107587317	0.109953939	0.104803804	0.084363006	0.034247248	-0.070437015	-0.266597527	-0.591336063	-1.04506607	-1.555243215	-1.988106896	-2.112463063	0.025599094	0.027250536	0.029065009	0.031064358	0.033274139	0.035724381	0.038450533	0.041494636	0.04490679	0.048746997	0.053087464	0.058015501	0.063637149	0.070081681	0.077507108	0.086106684	0.096116067	0.107819981	0.121555195	0.137701995	0.156645412	0.17866166	0.203623415	0.230268462	0.25442239	0.26479607	0.233815798	0.102389147	-0.222321302	-0.781963304	-1.40092236	-1.776702839	0.028091992	0.029996734	0.032100071	0.034430323	0.037020993	0.039911931	0.043150819	0.046795065	0.050914248	0.055593303	0.060936696	0.067073958	0.074167087	0.082420557	0.092094979	0.103525936	0.117150202	0.133542479	0.153467072	0.177950188	0.208378791	0.246626837	0.295184708	0.357172429	0.43577561	0.531422379	0.630706549	0.667775169	0.426792094	-0.427211923	-1.53013775	-1.990736	0.032545042	0.034909074	0.03753692	0.040468873	0.043753138	0.047447757	0.051623088	0.056365051	0.061779397	0.067997401	0.075183528	0.0835459	0.093350778	0.104942892	0.118774461	0.135447357	0.155775558	0.180879701	0.212333622	0.252397429	0.304398675	0.37337373	0.467174644	0.59839708	0.787555128	1.066380671	1.463101148	1.794937402	0.414856609	-2.616408039	0.037455323	0.040340717	0.043566064	0.047186025	0.051266548	0.055887746	0.061147671	0.06716729	0.074097151	0.082126384	0.091495052	0.102511325	0.115575748	0.131216159	0.150138939	0.173305947	0.202053052	0.238278284	0.284751275	0.34564413	0.427490695	0.541036343	0.705117062	0.955756282	1.3710847	2.15719081	4.074967339	10.26129613	0.042806058	0.046270503	0.050160686	0.054547619	0.059517453	0.065175462	0.071651282	0.079105887	0.087740963	0.09781171	0.109644502	0.12366169	0.140416967	0.160646798	0.185346781	0.215887851	0.254198106	0.303056866	0.366589196	0.451137772	0.566891455	0.731152106	0.975485804	1.363034927	2.033510884	3.263489456	0.048551198	0.052641097	0.057248942	0.062462997	0.068390597	0.075163185	0.082942936	0.091931545	0.102382032	0.114614744	0.129039338	0.146185356	0.166745331	0.191636459	0.222090156	0.259784096	0.307039553	0.367119019	0.444673125	0.546383295	0.681726234	0.863034795	1.099961043	1.361683891	0.059347202	0.064698972	0.070765807	0.077674432	0.085579565	0.094671309	0.105184783	0.117412746	0.131722229	0.148576482	0.168563942	0.192436189	0.221156778	0.255961337	0.298423847	0.350507048	0.414525627	0.492808694	0.586435233	0.691224251	0.06622356	0.072303847	0.079195006	0.087037004	0.095998841	0.106285275	0.118145073	0.131880964	0.147861284	0.166532758	0.188432684	0.214196063	0.24454727	0.280252808	0.321983019	0.369967783	0.423195836	0.477633734	0.08738052	0.096009063	0.10582135	0.117012202	0.129808339	0.144470142	0.161289779	0.180581578	0.202656792	0.22776796	0.255995088	0.287022446
-0.041473931	-0.043894472	-0.046398295	-0.04897013	-0.051589312	-0.054228802	-0.056854158	-0.059422508	-0.061881606	-0.064169077	-0.066211998	-0.067926997	-0.035308396	-0.037585419	-0.039991483	-0.042525054	-0.045181646	-0.047953008	-0.050826167	-0.053782331	-0.056795644	-0.05983183	-0.062846758	-0.065785018	-0.068578618	-0.071145984	-0.073391483	-0.075205765	-0.076467275	-0.077045287	-0.033404202	-0.035686111	-0.038119285	-0.040707516	-0.043452532	-0.046353269	-0.049404957	-0.052598025	-0.055916798	-0.059337972	-0.062828878	-0.066345572	-0.06983081	-0.073212026	-0.076399519	-0.079285108	-0.081741631	-0.083623781	-0.084770808	-0.08501169	-0.029175319	-0.031259941	-0.033502554	-0.035912318	-0.038497758	-0.041266302	-0.044223679	-0.047373147	-0.050714513	-0.054242913	-0.057947311	-0.061808691	-0.06579792	-0.069873286	-0.073977755	-0.078036054	-0.081951761	-0.085604721	-0.088849228	-0.091513615	-0.093402026	-0.094299317	-0.09397999	-0.092221914	-0.026930522	-0.02892992	-0.031093541	-0.033433652	-0.03596267	-0.038692847	-0.041635848	-0.044802166	-0.048200356	-0.051836017	-0.055710482	-0.059819163	-0.064149472	-0.068678277	-0.073368856	-0.078167338	-0.082998696	-0.087762454	-0.092328398	-0.096532829	-0.100176095	-0.103022504	-0.104803978	-0.105229014	-0.10399846	-0.100829103	-0.024583825	-0.026469574	-0.028520361	-0.030750675	-0.033175821	-0.03581177	-0.038674925	-0.041781758	-0.045148297	-0.048789395	-0.052717739	-0.056942516	-0.061467646	-0.066289506	-0.071394014	-0.076753005	-0.082319802	-0.088023972	-0.093765343	-0.099407534	-0.104771486	-0.109629886	-0.11370382	-0.11666358	-0.118136062	-0.117721501	-0.115021998	-0.10968295	-0.022183158	-0.023932921	-0.025843738	-0.027931413	-0.030213093	-0.03270726	-0.03543368	-0.038413254	-0.041667776	-0.045219517	-0.049090615	-0.053302167	-0.057872954	-0.062817677	-0.068144566	-0.073852207	-0.079925412	-0.086329953	-0.093006011	-0.099860278	-0.106756806	-0.113506983	-0.119859496	-0.125491818	-0.130005685	-0.13293009	-0.133736366	-0.131870264	-0.126804979	-0.118115545	-0.019772766	-0.021370441	-0.023121182	-0.025041269	-0.027148686	-0.029463237	-0.032006641	-0.034802587	-0.037876723	-0.041256558	-0.044971218	-0.049051009	-0.053526697	-0.0584284	-0.063783962	-0.069616609	-0.075941697	-0.082762257	-0.090063042	-0.09780276	-0.105904179	-0.114241942	-0.12262817	-0.130796468	-0.138385817	-0.144927163	-0.149837387	-0.152427553	-0.151934218	-0.147583026	-0.138690414	-0.124799904	-0.018827457	-0.020404921	-0.022140382	-0.024051775	-0.026159144	-0.028484857	-0.03105381	-0.033893618	-0.037034769	-0.040510719	-0.044357875	-0.048615413	-0.05332485	-0.058529246	-0.064271881	-0.070594198	-0.077532721	-0.085114593	-0.093351273	-0.10222985	-0.111701366	-0.121665538	-0.131951448	-0.14229419	-0.152308425	-0.161461486	-0.169051417	-0.174199317	-0.175870114	-0.172939825	-0.16432682	-0.149193731	-0.016343066	-0.01774046	-0.019281721	-0.020984003	-0.02286669	-0.02495168	-0.027263692	-0.029830606	-0.032683802	-0.035858512	-0.039394143	-0.043334549	-0.047728189	-0.052628102	-0.058091573	-0.064179337	-0.070954069	-0.078477849	-0.086808144	-0.095991699	-0.106055561	-0.116994239	-0.128751826	-0.14119785	-0.154095745	-0.167063621	-0.179528683	-0.19068016	-0.199431542	-0.204412062	-0.204018423	-0.196566176	-0.180574358	-0.155180026	-0.013949586	-0.015165772	-0.016509924	-0.01799787	-0.019647638	-0.021479774	-0.023517718	-0.025788209	-0.028321761	-0.03115317	-0.034322077	-0.037873565	-0.04185876	-0.046335413	-0.051368388	-0.057029961	-0.063399766	-0.070564178	-0.078614754	-0.087645258	-0.097746534	-0.108998232	-0.12145598	-0.135132219	-0.14996835	-0.165795574	-0.182281752	-0.198862759	-0.214659998	-0.228393095	-0.238310775	-0.242185529	-0.23744622	-0.221540908	-0.192590496	-0.150259084	-0.01271104	-0.01386083	-0.015135959	-0.016552618	-0.018129383	-0.019887601	-0.021851834	-0.024050379	-0.026515866	-0.029285945	-0.032404071	-0.035920386	-0.039892703	-0.044387559	-0.049481321	-0.055261262	-0.061826492	-0.06928855	-0.077771331	-0.087409855	-0.098347121	-0.11072789	-0.124687708	-0.140334742	-0.157720981	-0.176798202	-0.197352842	-0.218913248	-0.240623875	-0.261086988	-0.278188652	-0.288961181	-0.289597057	-0.275811181	-0.243785242	-0.191762963	-0.011361582	-0.012430891	-0.013620861	-0.014947719	-0.016430209	-0.018090032	-0.019952358	-0.022046442	-0.024406345	-0.027071786	-0.03008915	-0.033512659	-0.037405745	-0.04184262	-0.046910057	-0.052709363	-0.05935848	-0.066994106	-0.075773576	-0.085876132	-0.097502866	-0.110874223	-0.126223274	-0.14378194	-0.163755847	-0.186281335	-0.211355162	-0.238723754	-0.267715198	-0.296996286	-0.324246353	-0.345777124	-0.356226665	-0.348655529	-0.315643237	-0.252016848	-0.009031175	-0.009905842	-0.010880646	-0.011969294	-0.013187679	-0.01455428	-0.016090636	-0.01782192	-0.019777625	-0.021992391	-0.024507006	-0.027369611	-0.030637146	-0.034377087	-0.038669538	-0.043609697	-0.049310781	-0.055907418	-0.063559501	-0.07245644	-0.08282157	-0.09491628	-0.109042975	-0.125545325	-0.144803088	-0.16721697	-0.193175987	-0.222995106	-0.256803656	-0.294354247	-0.334707589	-0.375734803	-0.413384527	-0.440747681	-0.447265728	-0.419187869	-0.343436046	-0.216493181	-0.007575462	-0.008350272	-0.009216922	-0.010188418	-0.01127993	-0.012509196	-0.013897029	-0.015467917	-0.017250765	-0.019279805	-0.021595695	-0.024246892	-0.027291317	-0.030798425	-0.034851737	-0.039551966	-0.045020848	-0.051405821	-0.058885702	-0.067677485	-0.078044336	-0.090304728	-0.104842351	-0.122115917	-0.142666959	-0.167121932	-0.196181734	-0.230586199	-0.271031249	-0.317999111	-0.371431526	-0.430124113	-0.490642164	-0.545489235	-0.58041667	-0.57191504	-0.489595465	-0.313071061	-0.006039351	-0.006703165	-0.007448709	-0.008287954	-0.009234935	-0.010306156	-0.011521099	-0.012902833	-0.014478781	-0.016281658	-0.018350646	-0.020732852	-0.023485135	-0.026676404	-0.030390498	-0.034729838	-0.039820021	-0.045815646	-0.052907665	-0.061332653	-0.071384428	-0.083428495	-0.09791973	-0.115423509	-0.136639958	-0.162429786	-0.193837772	-0.232105203	-0.278653296	-0.335001216	-0.402544501	-0.482038908	-0.572457158	-0.668507587	-0.755437618	-0.799471829	-0.737368613	-0.493424462	-0.004431996	-0.004974614	-0.005587136	-0.006280164	-0.007066191	-0.00795999	-0.008979098	-0.010144412	-0.011480936	-0.013018711	-0.014793991	-0.016850725	-0.019242437	-0.022034626	-0.025307845	-0.029161657	-0.033719758	-0.039136615	-0.045606122	-0.053372891	-0.062747025	-0.074123421	-0.088006968	-0.105045239	-0.12607052	-0.152152958	-0.184666002	-0.225363389	-0.276462313	-0.340717018	-0.421442893	-0.522390255	-0.647195211	-0.797604637	-0.96797291	-1.128412016	-1.178967268	-0.886363962	-0.002763983	-0.00317642	-0.00364537	-0.004179753	-0.004790132	-0.005489071	-0.00629157	-0.007215615	-0.008282866	-0.00951953	-0.010957465	-0.012635599	-0.014601745	-0.016914955	-0.019648578	-0.022894263	-0.026767237	-0.031413292	-0.037018105	-0.043819736	-0.052125483	-0.062334717	-0.074969955	-0.090719254	-0.110494134	-0.135508686	-0.167387297	-0.208310672	-0.261212571	-0.330043844	-0.420128256	-0.538651637	-0.695353583	-0.903461698	-1.180246605	-1.541344878	-1.946537858	-1.947178758	-0.001047201	-0.001321937	-0.001638445	-0.002003675	-0.002425916	-0.002915085	-0.003483103	-0.004144362	-0.004916318	-0.005820244	-0.006882206	-0.008134314	-0.009616347	-0.011377888	-0.013481131	-0.01600461	-0.019048196	-0.022739824	-0.027244647	-0.032777587	-0.039620669	-0.048147175	-0.058855547	-0.072417331	-0.089745411	-0.112091682	-0.141187501	-0.179446474	-0.230258732	-0.298422369	-0.390792171	-0.517313117	-0.692858685	-0.941073011	-1.303946668	-1.869893974	-2.870687376	-5.012879587	0.000705349	0.000574135	0.000416982	0.000229142	4.90E-06	-0.000262658	-0.000581902	-0.000963045	-0.001418589	-0.001963918	-0.002618067	-0.003404719	-0.004353518	-0.005501808	-0.006896954	-0.008599463	-0.010687225	-0.013261324	-0.016454071	-0.02044024	-0.025452911	-0.031806067	-0.039927153	-0.050404455	-0.06405672	-0.082036373	-0.105983639	-0.138257966	-0.1822866	-0.243090427	-0.328080256	-0.448284643	-0.620361811	-0.870405673	-1.242959688	-1.827798744	-2.855292983	-5.027355897	0.002479767	0.002496014	0.002502938	0.002498167	0.002478777	0.002441155	0.00238082	0.002292197	0.002168324	0.002000461	0.001777592	0.001485755	0.001107154	0.000618967	-8.27E-06	-0.000812868	-0.001845037	-0.003171126	-0.004879609	-0.007089608	-0.009963178	-0.013723237	-0.018680051	-0.025270855	-0.03411986	-0.046130165	-0.062625908	-0.085573527	-0.117926328	-0.164156053	-0.231050938	-0.328843591	-0.472605949	-0.683424037	-0.987583421	-1.406636245	-1.89688762	-1.993873989	0.00426152	0.004427143	0.004600498	0.004781697	0.004970746	0.005167499	0.005371599	0.005582399	0.005798851	0.006019362	0.006241589	0.006462167	0.006676321	0.00687734	0.007055828	0.007198655	0.007287454	0.00729646	0.007189365	0.006914682	0.006398838	0.005535732	0.004170734	0.002075809	-0.001089754	-0.005842243	-0.012975685	-0.023729559	-0.040065579	-0.06512142	-0.103931581	-0.164474625	-0.258828959	-0.403101253	-0.611409387	-0.871612917	-1.082540827	-0.977079569	0.00603572	0.006350529	0.006690196	0.007057353	0.007454977	0.00788645	0.008355614	0.008866858	0.009425196	0.010036377	0.010707006	0.011444685	0.012258185	0.013157632	0.014154731	0.015262999	0.016498019	0.017877678	0.019422339	0.02115486	0.023100265	0.02528474	0.027733292	0.030464886	0.033482729	0.036755293	0.040179369	0.043507995	0.046208836	0.047184147	0.04421764	0.032906212	0.004752524	-0.055472183	-0.1700312	-0.353557468	-0.563475167	-0.657125386	0.007787435	0.008249105	0.008752462	0.009302607	0.009905438	0.010567796	0.011297655	0.012104345	0.012998841	0.013994111	0.015105565	0.016351608	0.017754362	0.019340576	0.02114281	0.023200976	0.025564363	0.028294318	0.031467833	0.03518238	0.039562493	0.044768788	0.051010423	0.058562382	0.067789444	0.079179132	0.093385847	0.111286134	0.134035977	0.163091066	0.200059572	0.245986945	0.298910202	0.346625673	0.348908855	0.213020618	-0.157914954	-0.625768057	0.00950199	0.010106107	0.010768071	0.011495333	0.012296559	0.013181868	0.014163135	0.015254357	0.016472114	0.017836159	0.019370147	0.021102584	0.023068039	0.025308712	0.027876501	0.030835718	0.034266712	0.038270764	0.042976738	0.048550256	0.055206499	0.063228282	0.072991945	0.085004917	0.099961002	0.118822796	0.142945987	0.174268236	0.21559591	0.271030299	0.346555898	0.450656979	0.594070653	0.78442624	0.997156939	1.055801669	0.415043211	-0.934522413	0.011905429	0.012718583	0.013614336	0.014603885	0.015700334	0.016919089	0.018278355	0.019799746	0.021509063	0.02343728	0.025621803	0.028108094	0.030951776	0.034221405	0.038002121	0.042400534	0.047551317	0.053626214	0.060846469	0.069500236	0.079967271	0.092754492	0.108548012	0.128290625	0.153299399	0.185447956	0.227455749	0.283359694	0.359307702	0.46494516	0.615949941	0.83890824	1.180990785	1.726166795	2.555345278	2.416780673	0.013631977	0.014586757	0.01563986	0.016804694	0.018096955	0.019535097	0.021140921	0.022940306	0.024964129	0.027249437	0.029840932	0.032792887	0.036171624	0.040058755	0.04455544	0.049788068	0.055915874	0.063141287	0.071724145	0.082001458	0.094415261	0.109552451	0.128202679	0.151444024	0.180772415	0.218301907	0.267083716	0.331633218	0.418842316	0.539661474	0.712478472	0.970756383	1.383371261	2.123174773	3.807388611	11.76734417	0.015271967	0.016356925	0.017554033	0.018878534	0.020348248	0.021984097	0.023810753	0.025857446	0.028158976	0.030756987	0.033701588	0.037053417	0.0408863	0.0452907	0.050378216	0.056287519	0.063192241	0.071311559	0.080924549	0.092389848	0.106172913	0.122884279	0.143333997	0.168610282	0.200195132	0.240137733	0.291320889	0.357882648	0.445908564	0.564621351	0.728537263	0.961578814	1.304932223	1.827262486	2.559143214	2.221015596	0.018015298	0.019341239	0.020807673	0.022434027	0.024243044	0.026261469	0.028520881	0.031058739	0.033919685	0.037157192	0.040835636	0.045032944	0.049843988	0.055384958	0.061799041	0.069263851	0.078001214	0.08829015	0.100484215	0.115034866	0.132523128	0.153702839	0.179560046	0.211394962	0.250935184	0.300491293	0.363166295	0.443120638	0.545844379	0.678181947	0.847031684	1.052292882	1.256193562	1.271097493	0.02098841	0.022577444	0.024337803	0.026293385	0.028472172	0.030907059	0.033636871	0.036707625	0.040174098	0.044101787	0.048569369	0.053671803	0.059524261	0.066267116	0.07407232	0.083151558	0.09376671	0.106243276	0.120987571	0.138508615	0.159445689	0.184602163	0.214985125	0.251847102	0.296718121	0.351396207	0.417814324	0.497574852	0.590618184	0.69167891	0.781399049	0.807120839	0.022485214	0.024176454	0.026047033	0.028121333	0.030427756	0.032999502	0.035875512	0.03910162	0.042731968	0.046830736	0.051474279	0.056753758	0.062778381	0.069679402	0.07761504	0.086776486	0.097395193	0.10975157	0.124185055	0.141105249	0.161002998	0.184458881	0.212143463	0.244797546	0.283168239	0.327851542	0.378941596	0.43528797	0.492986592	0.542504676	0.563971043	0.522487578	0.025596685	0.02755321	0.029717954	0.032118968	0.034788822	0.037765428	0.041093037	0.044823433	0.04901736	0.053746242	0.059094218	0.065160565	0.072062532	0.079938622	0.08895227	0.099295816	0.111194441	0.124909432	0.140739483	0.159017669	0.180099722	0.20433572	0.232011107	0.263232134	0.29771266	0.334390896	0.370768712	0.401850512	0.418676639	0.407016602	0.028851803	0.031079051	0.033542227	0.036272442	0.039305591	0.042683155	0.046453135	0.050671139	0.055401622	0.060719291	0.066710657	0.073475688	0.081129463	0.089803647	0.099647423	0.110827294	0.123524705	0.137929789	0.154228333	0.1725773	0.193061323	0.215618159	0.239914802	0.265148116	0.289737861	0.310887677	0.32404265	0.322437948	0.032204901	0.03469924	0.037454055	0.040502423	0.043882119	0.047636284	0.051814143	0.056471779	0.06167291	0.06748961	0.074002875	0.081302843	0.089488374	0.098665532	0.10894423	0.120431886	0.13322234	0.147377347	0.162896674	0.179671044	0.197410047	0.215535155	0.233028044	0.248230913	0.258618076	0.260613329	0.035596459	0.038342897	0.041368817	0.044707628	0.04839688	0.052478643	0.05699984	0.062012455	0.067573536	0.073744844	0.080591911	0.088182195	0.096581813	0.105850145	0.11603123	0.127140472	0.139144553	0.151931779	0.165269379	0.178743961	0.191682195	0.203052594	0.211359114	0.214557838	0.041923012	0.045183453	0.048765775	0.052704559	0.057037336	0.061804333	0.067047891	0.072811413	0.079137598	0.086065644	0.093626952	0.101838718	0.110694558	0.120151061	0.130108905	0.140386972	0.150687979	0.160554855	0.169319181	0.17604747	0.0453379	0.048778707	0.052536938	0.056640979	0.061119846	0.066002192	0.071314774	0.077080183	0.083313544	0.090017813	0.097177197	0.104748101	0.112646916	0.120733939	0.128792838	0.136505583	0.143423852	0.148940068	0.055869749	0.060031586	0.064525591	0.069364102	0.074552841	0.08008748	0.085949013	0.092097594	0.098464507	0.104941924	0.111370256	0.117523168
-0.055869749	-0.060031586	-0.064525591	-0.069364102	-0.074552841	-0.08008748	-0.085949013	-0.092097594	-0.098464507	-0.104941924	-0.111370256	-0.117523168	-0.0453379	-0.048778707	-0.052536938	-0.056640979	-0.061119846	-0.066002192	-0.071314774	-0.077080183	-0.083313544	-0.090017813	-0.097177197	-0.104748101	-0.112646916	-0.120733939	-0.128792838	-0.136505583	-0.143423852	-0.148940068	-0.041923012	-0.045183453	-0.048765775	-0.052704559	-0.057037336	-0.061804333	-0.067047891	-0.072811413	-0.079137598	-0.086065644	-0.093626952	-0.101838718	-0.110694558	-0.120151061	-0.130108905	-0.140386972	-0.150687979	-0.160554855	-0.169319181	-0.17604747	-0.035596459	-0.038342897	-0.041368817	-0.044707628	-0.04839688	-0.052478643	-0.05699984	-0.062012455	-0.067573536	-0.073744844	-0.080591911	-0.088182195	-0.096581813	-0.105850145	-0.11603123	-0.127140472	-0.139144553	-0.151931779	-0.165269379	-0.178743961	-0.191682195	-0.203052594	-0.211359114	-0.214557838	-0.032204901	-0.03469924	-0.037454055	-0.040502423	-0.043882119	-0.047636284	-0.051814143	-0.056471779	-0.06167291	-0.06748961	-0.074002875	-0.081302843	-0.089488374	-0.098665532	-0.10894423	-0.120431886	-0.13322234	-0.147377347	-0.162896674	-0.179671044	-0.197410047	-0.215535155	-0.233028044	-0.248230913	-0.258618076	-0.260613329	-0.028851803	-0.031079051	-0.033542227	-0.036272442	-0.039305591	-0.042683155	-0.046453135	-0.050671139	-0.055401622	-0.060719291	-0.066710657	-0.073475688	-0.081129463	-0.089803647	-0.099647423	-0.110827294	-0.123524705	-0.137929789	-0.154228333	-0.1725773	-0.193061323	-0.215618159	-0.239914802	-0.265148116	-0.289737861	-0.310887677	-0.32404265	-0.322437948	-0.025596685	-0.02755321	-0.029717954	-0.032118968	-0.034788822	-0.037765428	-0.041093037	-0.044823433	-0.04901736	-0.053746242	-0.059094218	-0.065160565	-0.072062532	-0.079938622	-0.08895227	-0.099295816	-0.111194441	-0.124909432	-0.140739483	-0.159017669	-0.180099722	-0.20433572	-0.232011107	-0.263232134	-0.29771266	-0.334390896	-0.370768712	-0.401850512	-0.418676639	-0.407016602	-0.022485214	-0.024176454	-0.026047033	-0.028121333	-0.030427756	-0.032999502	-0.035875512	-0.03910162	-0.042731968	-0.046830736	-0.051474279	-0.056753758	-0.062778381	-0.069679402	-0.07761504	-0.086776486	-0.097395193	-0.10975157	-0.124185055	-0.141105249	-0.161002998	-0.184458881	-0.212143463	-0.244797546	-0.283168239	-0.327851542	-0.378941596	-0.43528797	-0.492986592	-0.542504676	-0.563971043	-0.522487578	-0.02098841	-0.022577444	-0.024337803	-0.026293385	-0.028472172	-0.030907059	-0.033636871	-0.036707625	-0.040174098	-0.044101787	-0.048569369	-0.053671803	-0.059524261	-0.066267116	-0.07407232	-0.083151558	-0.09376671	-0.106243276	-0.120987571	-0.138508615	-0.159445689	-0.184602163	-0.214985125	-0.251847102	-0.296718121	-0.351396207	-0.417814324	-0.497574852	-0.590618184	-0.69167891	-0.781399049	-0.807120839	-0.018015298	-0.019341239	-0.020807673	-0.022434027	-0.024243044	-0.026261469	-0.028520881	-0.031058739	-0.033919685	-0.037157192	-0.040835636	-0.045032944	-0.049843988	-0.055384958	-0.061799041	-0.069263851	-0.078001214	-0.08829015	-0.100484215	-0.115034866	-0.132523128	-0.153702839	-0.179560046	-0.211394962	-0.250935184	-0.300491293	-0.363166295	-0.443120638	-0.545844379	-0.678181947	-0.847031684	-1.052292882	-1.256193562	-1.271097493	-0.015271967	-0.016356925	-0.017554033	-0.018878534	-0.020348248	-0.021984097	-0.023810753	-0.025857446	-0.028158976	-0.030756987	-0.033701588	-0.037053417	-0.0408863	-0.0452907	-0.050378216	-0.056287519	-0.063192241	-0.071311559	-0.080924549	-0.092389848	-0.106172913	-0.122884279	-0.143333997	-0.168610282	-0.200195132	-0.240137733	-0.291320889	-0.357882648	-0.445908564	-0.564621351	-0.728537263	-0.961578814	-1.304932223	-1.827262486	-2.559143214	-2.221015596	-0.013631977	-0.014586757	-0.01563986	-0.016804694	-0.018096955	-0.019535097	-0.021140921	-0.022940306	-0.024964129	-0.027249437	-0.029840932	-0.032792887	-0.036171624	-0.040058755	-0.04455544	-0.049788068	-0.055915874	-0.063141287	-0.071724145	-0.082001458	-0.094415261	-0.109552451	-0.128202679	-0.151444024	-0.180772415	-0.218301907	-0.267083716	-0.331633218	-0.418842316	-0.539661474	-0.712478472	-0.970756383	-1.383371261	-2.123174773	-3.807388611	-11.76734417	-0.011905429	-0.012718583	-0.013614336	-0.014603885	-0.015700334	-0.016919089	-0.018278355	-0.019799746	-0.021509063	-0.02343728	-0.025621803	-0.028108094	-0.030951776	-0.034221405	-0.038002121	-0.042400534	-0.047551317	-0.053626214	-0.060846469	-0.069500236	-0.079967271	-0.092754492	-0.108548012	-0.128290625	-0.153299399	-0.185447956	-0.227455749	-0.283359694	-0.359307702	-0.46494516	-0.615949941	-0.83890824	-1.180990785	-1.726166795	-2.555345278	-2.416780673	-0.00950199	-0.010106107	-0.010768071	-0.011495333	-0.012296559	-0.013181868	-0.014163135	-0.015254357	-0.016472114	-0.017836159	-0.019370147	-0.021102584	-0.023068039	-0.025308712	-0.027876501	-0.030835718	-0.034266712	-0.038270764	-0.042976738	-0.048550256	-0.055206499	-0.063228282	-0.072991945	-0.085004917	-0.099961002	-0.118822796	-0.142945987	-0.174268236	-0.21559591	-0.271030299	-0.346555898	-0.450656979	-0.594070653	-0.78442624	-0.997156939	-1.055801669	-0.415043211	0.934522413	-0.007787435	-0.008249105	-0.008752462	-0.009302607	-0.009905438	-0.010567796	-0.011297655	-0.012104345	-0.012998841	-0.013994111	-0.015105565	-0.016351608	-0.017754362	-0.019340576	-0.02114281	-0.023200976	-0.025564363	-0.028294318	-0.031467833	-0.03518238	-0.039562493	-0.044768788	-0.051010423	-0.058562382	-0.067789444	-0.079179132	-0.093385847	-0.111286134	-0.134035977	-0.163091066	-0.200059572	-0.245986945	-0.298910202	-0.346625673	-0.348908855	-0.213020618	0.157914954	0.625768057	-0.00603572	-0.006350529	-0.006690196	-0.007057353	-0.007454977	-0.00788645	-0.008355614	-0.008866858	-0.009425196	-0.010036377	-0.010707006	-0.011444685	-0.012258185	-0.013157632	-0.014154731	-0.015262999	-0.016498019	-0.017877678	-0.019422339	-0.02115486	-0.023100265	-0.02528474	-0.027733292	-0.030464886	-0.033482729	-0.036755293	-0.040179369	-0.043507995	-0.046208836	-0.047184147	-0.04421764	-0.032906212	-0.004752524	0.055472183	0.1700312	0.353557468	0.563475167	0.657125386	-0.00426152	-0.004427143	-0.004600498	-0.004781697	-0.004970746	-0.005167499	-0.005371599	-0.005582399	-0.005798851	-0.006019362	-0.006241589	-0.006462167	-0.006676321	-0.00687734	-0.007055828	-0.007198655	-0.007287454	-0.00729646	-0.007189365	-0.006914682	-0.006398838	-0.005535732	-0.004170734	-0.002075809	0.001089754	0.005842243	0.012975685	0.023729559	0.040065579	0.06512142	0.103931581	0.164474625	0.258828959	0.403101253	0.611409387	0.871612917	1.082540827	0.977079569	-0.002479767	-0.002496014	-0.002502938	-0.002498167	-0.002478777	-0.002441155	-0.00238082	-0.002292197	-0.002168324	-0.002000461	-0.001777592	-0.001485755	-0.001107154	-0.000618967	8.27E-06	0.000812868	0.001845037	0.003171126	0.004879609	0.007089608	0.009963178	0.013723237	0.018680051	0.025270855	0.03411986	0.046130165	0.062625908	0.085573527	0.117926328	0.164156053	0.231050938	0.328843591	0.472605949	0.683424037	0.987583421	1.406636245	1.89688762	1.993873989	-0.000705349	-0.000574135	-0.000416982	-0.000229142	-4.90E-06	0.000262658	0.000581902	0.000963045	0.001418589	0.001963918	0.002618067	0.003404719	0.004353518	0.005501808	0.006896954	0.008599463	0.010687225	0.013261324	0.016454071	0.02044024	0.025452911	0.031806067	0.039927153	0.050404455	0.06405672	0.082036373	0.105983639	0.138257966	0.1822866	0.243090427	0.328080256	0.448284643	0.620361811	0.870405673	1.242959688	1.827798744	2.855292983	5.027355897	0.001047201	0.001321937	0.001638445	0.002003675	0.002425916	0.002915085	0.003483103	0.004144362	0.004916318	0.005820244	0.006882206	0.008134314	0.009616347	0.011377888	0.013481131	0.01600461	0.019048196	0.022739824	0.027244647	0.032777587	0.039620669	0.048147175	0.058855547	0.072417331	0.089745411	0.112091682	0.141187501	0.179446474	0.230258732	0.298422369	0.390792171	0.517313117	0.692858685	0.941073011	1.303946668	1.869893974	2.870687376	5.012879587	0.002763983	0.00317642	0.00364537	0.004179753	0.004790132	0.005489071	0.00629157	0.007215615	0.008282866	0.00951953	0.010957465	0.012635599	0.014601745	0.016914955	0.019648578	0.022894263	0.026767237	0.031413292	0.037018105	0.043819736	0.052125483	0.062334717	0.074969955	0.090719254	0.110494134	0.135508686	0.167387297	0.208310672	0.261212571	0.330043844	0.420128256	0.538651637	0.695353583	0.903461698	1.180246605	1.541344878	1.946537858	1.947178758	0.004431996	0.004974614	0.005587136	0.006280164	0.007066191	0.00795999	0.008979098	0.010144412	0.011480936	0.013018711	0.014793991	0.016850725	0.019242437	0.022034626	0.025307845	0.029161657	0.033719758	0.039136615	0.045606122	0.053372891	0.062747025	0.074123421	0.088006968	0.105045239	0.12607052	0.152152958	0.184666002	0.225363389	0.276462313	0.340717018	0.421442893	0.522390255	0.647195211	0.797604637	0.96797291	1.128412016	1.178967268	0.886363962	0.006039351	0.006703165	0.007448709	0.008287954	0.009234935	0.010306156	0.011521099	0.012902833	0.014478781	0.016281658	0.018350646	0.020732852	0.023485135	0.026676404	0.030390498	0.034729838	0.039820021	0.045815646	0.052907665	0.061332653	0.071384428	0.083428495	0.09791973	0.115423509	0.136639958	0.162429786	0.193837772	0.232105203	0.278653296	0.335001216	0.402544501	0.482038908	0.572457158	0.668507587	0.755437618	0.799471829	0.737368613	0.493424462	0.007575462	0.008350272	0.009216922	0.010188418	0.01127993	0.012509196	0.013897029	0.015467917	0.017250765	0.019279805	0.021595695	0.024246892	0.027291317	0.030798425	0.034851737	0.039551966	0.045020848	0.051405821	0.058885702	0.067677485	0.078044336	0.090304728	0.104842351	0.122115917	0.142666959	0.167121932	0.196181734	0.230586199	0.271031249	0.317999111	0.371431526	0.430124113	0.490642164	0.545489235	0.58041667	0.57191504	0.489595465	0.313071061	0.009031175	0.009905842	0.010880646	0.011969294	0.013187679	0.01455428	0.016090636	0.01782192	0.019777625	0.021992391	0.024507006	0.027369611	0.030637146	0.034377087	0.038669538	0.043609697	0.049310781	0.055907418	0.063559501	0.07245644	0.08282157	0.09491628	0.109042975	0.125545325	0.144803088	0.16721697	0.193175987	0.222995106	0.256803656	0.294354247	0.334707589	0.375734803	0.413384527	0.440747681	0.447265728	0.419187869	0.343436046	0.216493181	0.011361582	0.012430891	0.013620861	0.014947719	0.016430209	0.018090032	0.019952358	0.022046442	0.024406345	0.027071786	0.03008915	0.033512659	0.037405745	0.04184262	0.046910057	0.052709363	0.05935848	0.066994106	0.075773576	0.085876132	0.097502866	0.110874223	0.126223274	0.14378194	0.163755847	0.186281335	0.211355162	0.238723754	0.267715198	0.296996286	0.324246353	0.345777124	0.356226665	0.348655529	0.315643237	0.252016848	0.01271104	0.01386083	0.015135959	0.016552618	0.018129383	0.019887601	0.021851834	0.024050379	0.026515866	0.029285945	0.032404071	0.035920386	0.039892703	0.044387559	0.049481321	0.055261262	0.061826492	0.06928855	0.077771331	0.087409855	0.098347121	0.11072789	0.124687708	0.140334742	0.157720981	0.176798202	0.197352842	0.218913248	0.240623875	0.261086988	0.278188652	0.288961181	0.289597057	0.275811181	0.243785242	0.191762963	0.013949586	0.015165772	0.016509924	0.01799787	0.019647638	0.021479774	0.023517718	0.025788209	0.028321761	0.03115317	0.034322077	0.037873565	0.04185876	0.046335413	0.051368388	0.057029961	0.063399766	0.070564178	0.078614754	0.087645258	0.097746534	0.108998232	0.12145598	0.135132219	0.14996835	0.165795574	0.182281752	0.198862759	0.214659998	0.228393095	0.238310775	0.242185529	0.23744622	0.221540908	0.192590496	0.150259084	0.016343066	0.01774046	0.019281721	0.020984003	0.02286669	0.02495168	0.027263692	0.029830606	0.032683802	0.035858512	0.039394143	0.043334549	0.047728189	0.052628102	0.058091573	0.064179337	0.070954069	0.078477849	0.086808144	0.095991699	0.106055561	0.116994239	0.128751826	0.14119785	0.154095745	0.167063621	0.179528683	0.19068016	0.199431542	0.204412062	0.204018423	0.196566176	0.180574358	0.155180026	0.018827457	0.020404921	0.022140382	0.024051775	0.026159144	0.028484857	0.03105381	0.033893618	0.037034769	0.040510719	0.044357875	0.048615413	0.05332485	0.058529246	0.064271881	0.070594198	0.077532721	0.085114593	0.093351273	0.10222985	0.111701366	0.121665538	0.131951448	0.14229419	0.152308425	0.161461486	0.169051417	0.174199317	0.175870114	0.172939825	0.16432682	0.149193731	0.019772766	0.021370441	0.023121182	0.025041269	0.027148686	0.029463237	0.032006641	0.034802587	0.037876723	0.041256558	0.044971218	0.049051009	0.053526697	0.0584284	0.063783962	0.069616609	0.075941697	0.082762257	0.090063042	0.09780276	0.105904179	0.114241942	0.12262817	0.130796468	0.138385817	0.144927163	0.149837387	0.152427553	0.151934218	0.147583026	0.138690414	0.124799904	0.022183158	0.023932921	0.025843738	0.027931413	0.030213093	0.03270726	0.03543368	0.038413254	0.041667776	0.045219517	0.049090615	0.053302167	0.057872954	0.062817677	0.068144566	0.073852207	0.079925412	0.086329953	0.093006011	0.099860278	0.106756806	0.113506983	0.119859496	0.125491818	0.130005685	0.13293009	0.133736366	0.131870264	0.126804979	0.118115545	0.024583825	0.026469574	0.028520361	0.030750675	0.033175821	0.03581177	0.038674925	0.041781758	0.045148297	0.048789395	0.052717739	0.056942516	0.061467646	0.066289506	0.071394014	0.076753005	0.082319802	0.088023972	0.093765343	0.099407534	0.104771486	0.109629886	0.11370382	0.11666358	0.118136062	0.117721501	0.115021998	0.10968295	0.026930522	0.02892992	0.031093541	0.033433652	0.03596267	0.038692847	0.041635848	0.044802166	0.048200356	0.051836017	0.055710482	0.059819163	0.064149472	0.068678277	0.073368856	0.078167338	0.082998696	0.087762454	0.092328398	0.096532829	0.100176095	0.103022504	0.104803978	0.105229014	0.10399846	0.100829103	0.029175319	0.031259941	0.033502554	0.035912318	0.038497758	0.041266302	0.044223679	0.047373147	0.050714513	0.054242913	0.057947311	0.061808691	0.06579792	0.069873286	0.073977755	0.078036054	0.081951761	0.085604721	0.088849228	0.091513615	0.093402026	0.094299317	0.09397999	0.092221914	0.033404202	0.035686111	0.038119285	0.040707516	0.043452532	0.046353269	0.049404957	0.052598025	0.055916798	0.059337972	0.062828878	0.066345572	0.06983081	0.073212026	0.076399519	0.079285108	0.081741631	0.083623781	0.084770808	0.08501169	0.035308396	0.037585419	0.039991483	0.042525054	0.045181646	0.047953008	0.050826167	0.053782331	0.056795644	0.05983183	0.062846758	0.065785018	0.068578618	0.071145984	0.073391483	0.075205765	0.076467275	0.077045287	0.041473931	0.043894472	0.046398295	0.04897013	0.051589312	0.054228802	0.056854158	0.059422508	0.061881606	0.064169077	0.066211998	0.067926997
-0.08738052	-0.096009063	-0.10582135	-0.117012202	-0.129808339	-0.144470142	-0.161289779	-0.180581578	-0.202656792	-0.22776796	-0.255995088	-0.287022446	-0.06622356	-0.072303847	-0.079195006	-0.087037004	-0.095998841	-0.106285275	-0.118145073	-0.131880964	-0.147861284	-0.166532758	-0.188432684	-0.214196063	-0.24454727	-0.280252808	-0.321983019	-0.369967783	-0.423195836	-0.477633734	-0.059347202	-0.064698972	-0.070765807	-0.077674432	-0.085579565	-0.094671309	-0.105184783	-0.117412746	-0.131722229	-0.148576482	-0.168563942	-0.192436189	-0.221156778	-0.255961337	-0.298423847	-0.350507048	-0.414525627	-0.492808694	-0.586435233	-0.691224251	-0.048551198	-0.052641097	-0.057248942	-0.062462997	-0.068390597	-0.075163185	-0.082942936	-0.091931545	-0.102382032	-0.114614744	-0.129039338	-0.146185356	-0.166745331	-0.191636459	-0.222090156	-0.259784096	-0.307039553	-0.367119019	-0.444673125	-0.546383295	-0.681726234	-0.863034795	-1.099961043	-1.361683891	-0.042806058	-0.046270503	-0.050160686	-0.054547619	-0.059517453	-0.065175462	-0.071651282	-0.079105887	-0.087740963	-0.09781171	-0.109644502	-0.12366169	-0.140416967	-0.160646798	-0.185346781	-0.215887851	-0.254198106	-0.303056866	-0.366589196	-0.451137772	-0.566891455	-0.731152106	-0.975485804	-1.363034927	-2.033510884	-3.263489456	-0.037455323	-0.040340717	-0.043566064	-0.047186025	-0.051266548	-0.055887746	-0.061147671	-0.06716729	-0.074097151	-0.082126384	-0.091495052	-0.102511325	-0.115575748	-0.131216159	-0.150138939	-0.173305947	-0.202053052	-0.238278284	-0.284751275	-0.34564413	-0.427490695	-0.541036343	-0.705117062	-0.955756282	-1.3710847	-2.15719081	-4.074967339	-10.26129613	-0.032545042	-0.034909074	-0.03753692	-0.040468873	-0.043753138	-0.047447757	-0.051623088	-0.056365051	-0.061779397	-0.067997401	-0.075183528	-0.0835459	-0.093350778	-0.104942892	-0.118774461	-0.135447357	-0.155775558	-0.180879701	-0.212333622	-0.252397429	-0.304398675	-0.37337373	-0.467174644	-0.59839708	-0.787555128	-1.066380671	-1.463101148	-1.794937402	-0.414856609	2.616408039	-0.028091992	-0.029996734	-0.032100071	-0.034430323	-0.037020993	-0.039911931	-0.043150819	-0.046795065	-0.050914248	-0.055593303	-0.060936696	-0.067073958	-0.074167087	-0.082420557	-0.092094979	-0.103525936	-0.117150202	-0.133542479	-0.153467072	-0.177950188	-0.208378791	-0.246626837	-0.295184708	-0.357172429	-0.43577561	-0.531422379	-0.630706549	-0.667775169	-0.426792094	0.427211923	1.53013775	1.990736	-0.025599094	-0.027250536	-0.029065009	-0.031064358	-0.033274139	-0.035724381	-0.038450533	-0.041494636	-0.04490679	-0.048746997	-0.053087464	-0.058015501	-0.063637149	-0.070081681	-0.077507108	-0.086106684	-0.096116067	-0.107819981	-0.121555195	-0.137701995	-0.156645412	-0.17866166	-0.203623415	-0.230268462	-0.25442239	-0.26479607	-0.233815798	-0.102389147	0.222321302	0.781963304	1.40092236	1.776702839	-0.021694328	-0.022962346	-0.024341819	-0.025845686	-0.027488701	-0.029287719	-0.031262012	-0.03343363	-0.035827791	-0.038473298	-0.041402928	-0.044653758	-0.048267278	-0.052289086	-0.056767759	-0.061752164	-0.067285884	-0.073396347	-0.080074166	-0.087234337	-0.09464344	-0.10178253	-0.107587317	-0.109953939	-0.104803804	-0.084363006	-0.034247248	0.070437015	0.266597527	0.591336063	1.04506607	1.555243215	1.988106896	2.112463063	-0.018250025	-0.019196863	-0.020214405	-0.021309011	-0.022487562	-0.023757443	-0.025126487	-0.026602847	-0.02819478	-0.029910267	-0.031756403	-0.033738407	-0.03585807	-0.038111303	-0.040484281	-0.042947365	-0.045445465	-0.047882675	-0.050097545	-0.051822922	-0.052620119	-0.051770061	-0.048092198	-0.039643109	-0.023219982	0.006432363	0.057798221	0.144057093	0.284122344	0.501286717	0.816939121	1.241764654	1.779135604	2.452404537	3.264811689	2.935688963	-0.015908872	-0.016628779	-0.017389489	-0.018192344	-0.019038184	-0.01992708	-0.020857958	-0.021828069	-0.022832236	-0.023861799	-0.024903092	-0.025935283	-0.026927248	-0.027833042	-0.028585283	-0.029085399	-0.02918914	-0.02868487	-0.027260787	-0.02445504	-0.019579449	-0.011602604	0.001028601	0.020657826	0.050812201	0.096742662	0.166080895	0.269439038	0.420540839	0.635406649	0.931196903	1.329266817	1.875593759	2.71691237	4.451630972	12.40543031	-0.013528544	-0.014019843	-0.014522346	-0.015032566	-0.015545563	-0.016054462	-0.016549802	-0.017018664	-0.017443483	-0.017800431	-0.018057207	-0.018169972	-0.018079107	-0.017703262	-0.016930991	-0.015608876	-0.013524588	-0.01038258	-0.005769066	0.000898533	0.010444443	0.024038777	0.043344311	0.070717005	0.109465353	0.164153774	0.240892015	0.347487684	0.493308771	0.688894672	0.946109582	1.281181902	1.724819904	2.341917851	3.196978301	3.02955207	-0.010858301	-0.011134481	-0.011399523	-0.011647247	-0.011869692	-0.012056615	-0.012194834	-0.012267362	-0.012252276	-0.012121209	-0.011837345	-0.011352747	-0.010604737	-0.009511024	-0.007963051	-0.005816924	-0.002880946	0.001101529	0.006475728	0.013707983	0.023430264	0.036500508	0.054082766	0.077750183	0.109609884	0.152439474	0.209806691	0.286116147	0.386499115	0.516463333	0.681289312	0.885238211	1.130176322	1.409955527	1.682284796	1.751518668	1.056817672	-0.414174292	-0.00867192	-0.008751325	-0.00879623	-0.008797052	-0.008741855	-0.008615745	-0.008400082	-0.008071476	-0.007600482	-0.006949901	-0.006072574	-0.004908475	-0.003380896	-0.001391401	0.001186844	0.00451794	0.008815006	0.014355775	0.02150315	0.030732114	0.042664402	0.058112086	0.078130186	0.104075841	0.137666419	0.181019765	0.236645488	0.307337286	0.395895929	0.504591946	0.634228946	0.782460179	0.940253442	1.083369484	1.152905133	1.029390125	0.58425478	-0.064080656	-0.006512082	-0.00640236	-0.006236632	-0.006002385	-0.005684315	-0.005263645	-0.004717276	-0.004016702	-0.00312663	-0.002003221	-0.000591828	0.001175891	0.003385705	0.0061456	0.009591954	0.013897463	0.019281278	0.026021878	0.034473188	0.045084384	0.058423429	0.075203585	0.096310513	0.122824587	0.156028126	0.197379638	0.248426477	0.310613591	0.384928622	0.471296668	0.567579027	0.667890514	0.759704397	0.819205009	0.806493014	0.671396016	0.393037449	0.039705743	-0.004397693	-0.004109028	-0.00374509	-0.00329097	-0.002728659	-0.002036349	-0.001187553	-0.000150014	0.001115665	0.002657738	0.004535467	0.006821829	0.009606908	0.013002135	0.017145578	0.022208476	0.028403237	0.035993037	0.045303046	0.056732991	0.070770185	0.088001147	0.109118217	0.134914873	0.166259471	0.204031547	0.248997684	0.301595258	0.361581913	0.427495001	0.495847377	0.559980268	0.608597306	0.624540697	0.585951341	0.474310403	0.291732772	0.074506756	-0.002345856	-0.001890549	-0.001343217	-0.000687115	9.78E-05	0.001035414	0.002154606	0.003489997	0.005083387	0.006985306	0.009256955	0.011972579	0.015222367	0.019115943	0.023786561	0.029396042	0.03614045	0.044256395	0.054027599	0.065791011	0.079941104	0.09693003	0.117259816	0.141460718	0.170047022	0.203438189	0.241829352	0.284991692	0.331981131	0.380736291	0.427562832	0.466558144	0.489192554	0.484627137	0.441871504	0.354850584	0.229166939	0.084823888	-0.000371628	0.000236353	0.000950426	0.001788611	0.002772237	0.003926599	0.00528175	0.006873455	0.008744348	0.010945305	0.013537106	0.016592388	0.020197955	0.024457448	0.029494371	0.035455428	0.042513988	0.05087341	0.060769639	0.072472172	0.086281874	0.102523365	0.121528585	0.143606741	0.168994259	0.197776729	0.229773768	0.264378193	0.300344821	0.33553555	0.36665431	0.389062681	0.396871854	0.383646699	0.344102885	0.276793713	0.186685362	0.085392733	0.001512146	0.002257621	0.003120506	0.004119554	0.005276757	0.006617943	0.008173476	0.009979094	0.012076884	0.014516428	0.017356126	0.020664707	0.02452292	0.029025382	0.034282497	0.040422325	0.047592139	0.055959291	0.065710751	0.077050363	0.090192442	0.105349731	0.122713059	0.142419292	0.164503502	0.188831017	0.215005797	0.242254216	0.269289688	0.294176168	0.314231331	0.32604634	0.325743927	0.309619624	0.275235939	0.222769129	0.155977882	0.081946356	0.003294911	0.004161935	0.005154961	0.006292977	0.007598048	0.00909583	0.010816172	0.012793804	0.01506913	0.017689113	0.020708263	0.024189702	0.028206269	0.032841612	0.038191132	0.044362618	0.051476281	0.059663777	0.069065607	0.07982605	0.092084472	0.105961501	0.121538221	0.138826249	0.157726588	0.177975699	0.199078833	0.220234023	0.240256174	0.257520583	0.269959536	0.275162322	0.270639544	0.25429629	0.225085806	0.18367328	0.132788553	0.076942405	0.004968405	0.005940683	0.007044935	0.008299943	0.009727325	0.011351969	0.013202519	0.015311911	0.017717974	0.020464065	0.023599733	0.027181372	0.031272811	0.035945746	0.041279899	0.047362685	0.054288133	0.062154659	0.071061172	0.081100829	0.092351555	0.104862316	0.118634002	0.13359384	0.149562657	0.1662152	0.18303549	0.199272218	0.213903761	0.225628678	0.232904655	0.234063853	0.227529133	0.212133951	0.187500947	0.154368193	0.114705292	0.071492595	0.006526601	0.007587866	0.008784626	0.010135076	0.011659962	0.013382918	0.015330837	0.017534267	0.020027821	0.022850582	0.026046474	0.029664563	0.033759205	0.038389966	0.043621166	0.049520867	0.056159053	0.063604681	0.071921174	0.081159863	0.091350771	0.102490134	0.114524098	0.127328255	0.140683237	0.154247497	0.167529985	0.179867648	0.190415701	0.198161892	0.201978551	0.200725738	0.193411874	0.179401292	0.158631182	0.131771857	0.100253277	0.066108058	0.007965584	0.009099927	0.01037105	0.011796255	0.013395073	0.015189512	0.017204321	0.019467246	0.022009272	0.024864828	0.028071908	0.031672078	0.035710287	0.040234392	0.045294284	0.050940435	0.057221667	0.064181894	0.071855521	0.080261155	0.089393299	0.099211708	0.10962826	0.120491498	0.1315695	0.142532563	0.152938364	0.162223727	0.169708816	0.174620914	0.176145199	0.17350757	0.166088304	0.153554192	0.135982704	0.11394026	0.088476735	0.061016817	0.009283395	0.01047554	0.011803762	0.013284234	0.014935019	0.016776237	0.01883023	0.021121698	0.023677792	0.02652815	0.029704824	0.033242052	0.037175826	0.041543149	0.046380898	0.051724139	0.057603746	0.064043134	0.071053907	0.078630215	0.086741652	0.095324632	0.104272335	0.113423621	0.122551756	0.131354411	0.139447194	0.146363843	0.151566981	0.154473626	0.154498903	0.151118948	0.143949293	0.132828379	0.117888811	0.099594859	0.07872739	0.056308991	0.011715361	0.013084539	0.014602245	0.016284901	0.018150581	0.020219077	0.02251194	0.025052452	0.027865528	0.030977485	0.034415661	0.038207808	0.042381198	0.046961347	0.051970266	0.05742411	0.063330119	0.069682711	0.076458658	0.083611287	0.091063788	0.098701863	0.106366203	0.113845634	0.120872194	0.127119893	0.132209353	0.135720769	0.137217407	0.13628089	0.132557495	0.125811519	0.115978016	0.103203826	0.08786472	0.070549232	0.012821766	0.014217049	0.01575558	0.017452049	0.019322402	0.021383848	0.023654806	0.026154789	0.028904201	0.031924004	0.035235228	0.038858268	0.042811919	0.047112071	0.051770004	0.056790201	0.062167606	0.067884278	0.073905415	0.080174807	0.086609852	0.09309643	0.099484129	0.10558255	0.111159709	0.115943794	0.119629748	0.121892075	0.1224049	0.120869426	0.117047398	0.110797245	0.102107459	0.091120258	0.078138614	0.063611849	0.013798578	0.015206515	0.01675119	0.018445523	0.020303335	0.022339294	0.024568798	0.027007795	0.0296725	0.032579004	0.03574272	0.039177646	0.042895385	0.046903896	0.051205905	0.055796953	0.060663034	0.065777824	0.071099523	0.076567415	0.082098307	0.087583155	0.092884308	0.097833958	0.10223458	0.105862213	0.108473496	0.109817215	0.109650699	0.107760701	0.10398737	0.098248699	0.090561726	0.081056164	0.069976465	0.057669896	0.016059396	0.017597294	0.019275659	0.021106244	0.023101287	0.025273347	0.027635075	0.030198892	0.032976561	0.035978613	0.039213611	0.042687218	0.046401035	0.050351187	0.054526629	0.058907183	0.06346131	0.068143688	0.072892696	0.077628003	0.082248498	0.086630956	0.090629882	0.094079082	0.096795535	0.098586103	0.099257403	0.098628858	0.096548368	0.092909402	0.087667562	0.080854109	0.072583743	0.06305434	0.018303031	0.019953656	0.021744751	0.023686282	0.025788193	0.028060158	0.030511232	0.033149414	0.035981083	0.039010297	0.042237936	0.045660655	0.049269663	0.053049306	0.056975465	0.061013829	0.065118093	0.069228198	0.073268793	0.077148117	0.080757622	0.08397265	0.086654553	0.088654612	0.089820034	0.090002141	0.089066569	0.08690495	0.083447081	0.078672176	0.072617531	0.065382887	0.018878139	0.020491212	0.022232823	0.024110851	0.026132886	0.02830596	0.030636199	0.033128397	0.035785481	0.038607862	0.04159267	0.044732844	0.0480161	0.05142377	0.054929541	0.058498151	0.062084094	0.065630458	0.069068025	0.072314831	0.075276384	0.077846806	0.079911127	0.081348952	0.082039625	0.081868874	0.08073671	0.078566091	0.075311595	0.070967097	0.065571326	0.05921023	0.020900218	0.022584432	0.024391323	0.026326393	0.028394375	0.030598898	0.03294208	0.035424037	0.038042307	0.040791171	0.043660891	0.046636852	0.049698639	0.052819068	0.055963231	0.059087613	0.06213937	0.065055906	0.067764867	0.070184723	0.072226117	0.073794112	0.074791472	0.075122996	0.074700843	0.073450603	0.071317718	0.068273678	0.064321273	0.059498167	0.022813281	0.024543489	0.026386806	0.028346	0.030422608	0.032616559	0.034925742	0.037345489	0.039868005	0.04248173	0.045170651	0.047913576	0.050683421	0.053446532	0.056162117	0.05878186	0.061249814	0.063502676	0.065470565	0.067078412	0.068248044	0.068901032	0.068962273	0.068364214	0.067051508	0.064985766	0.062150003	0.058552242	0.024582394	0.02633114	0.028179947	0.030128634	0.032175385	0.034316363	0.036545275	0.038852888	0.041226513	0.043649461	0.046100495	0.048553313	0.050976097	0.053331181	0.055574901	0.0576577	0.059524572	0.061115913	0.062368858	0.063219156	0.063603584	0.063462879	0.06274507	0.061409036	0.059428042	0.056792924	0.026175196	0.027913742	0.02973626	0.031639575	0.033618562	0.035665784	0.037771092	0.039921215	0.042099339	0.044284706	0.046452259	0.048572356	0.050610619	0.052527941	0.054280734	0.055821442	0.057099409	0.058062109	0.058656785	0.058832477	0.058542399	0.057746557	0.056414473	0.054527815	0.029262767	0.031027708	0.032852076	0.034727686	0.036643891	0.038587257	0.040541253	0.042485967	0.044397866	0.046249656	0.04801024	0.049644842	0.051115323	0.052380731	0.053398123	0.054123674	0.054514086	0.054528271	0.054129272	0.053286318	0.030356056	0.032033938	0.03374853	0.035489011	0.037242103	0.038991847	0.040719409	0.042402946	0.044017544	0.045535277	0.046925388	0.048154644	0.049187881	0.049988759	0.050520742	0.050748296	0.050638279	0.050161483	0.034321071	0.035899816	0.037464118	0.038996364	0.040476456	0.041881821	0.043187517	0.04436646	0.045389782	0.046227351	0.04684845	0.047222633
-0.174504436	-0.199761195	-0.23090688	-0.269935225	-0.319773146	-0.384870413	-0.472287563	-0.593844621	-0.770747876	-1.044736675	-1.509269933	-2.415474191	-0.117478519	-0.131386309	-0.147919576	-0.167785916	-0.191950234	-0.221757025	-0.259127224	-0.306887437	-0.369346061	-0.453358199	-0.570431258	-0.741257207	-1.006597316	-1.457460618	-2.335001549	-4.334947085	1.606815652	5.583481333	-0.100069818	-0.110957077	-0.123718652	-0.138809488	-0.156830731	-0.178589447	-0.205188395	-0.238163893	-0.279702201	-0.332985816	-0.402754034	-0.496197403	-0.624241934	-0.802446357	-1.04484115	-1.304720936	-1.105066101	0.934035347	2.838373769	2.995144144	-0.07734457	-0.084619983	-0.092959881	-0.102578593	-0.113745588	-0.126802513	-0.142186077	-0.160458608	-0.182348093	-0.208798063	-0.241021871	-0.280536673	-0.329092535	-0.388227208	-0.457598074	-0.529425259	-0.571084793	-0.47833358	-0.016259122	0.955912905	1.932182348	2.455305956	2.697287681	2.846855352	-0.065644894	-0.0712033	-0.077474885	-0.084580199	-0.092663694	-0.101898225	-0.11248957	-0.124679768	-0.138746541	-0.154992607	-0.173711216	-0.195097518	-0.219037943	-0.244624704	-0.269051615	-0.285142498	-0.276072438	-0.205637705	-0.007988689	0.393984331	0.993478336	1.632162612	2.174567506	2.676501789	3.347571317	4.520282655	-0.055539476	-0.059718282	-0.064352141	-0.069500025	-0.07522707	-0.081603271	-0.088700184	-0.096583966	-0.10530164	-0.114854942	-0.125151247	-0.135912011	-0.146501998	-0.155610814	-0.160662165	-0.15674008	-0.134742602	-0.078630731	0.037174643	0.245512444	0.57007269	0.996426391	1.470208533	1.956150159	2.509622096	3.352730548	5.270087898	11.41364718	-0.046889977	-0.049978505	-0.053337701	-0.056988014	-0.060946865	-0.065225143	-0.06982141	-0.07471241	-0.079837518	-0.085073261	-0.090191403	-0.094789814	-0.09817818	-0.099189545	-0.09587282	-0.085004718	-0.061360814	-0.016766928	0.060737061	0.186536598	0.375806571	0.635258233	0.95494676	1.312373819	1.693310214	2.111770425	2.595694509	2.968849269	1.587633756	-1.491790481	-0.039530384	-0.041767532	-0.044146733	-0.046665539	-0.04931432	-0.052072323	-0.054901749	-0.057738853	-0.060480487	-0.062963699	-0.064934697	-0.066001547	-0.065562192	-0.062695639	-0.056000108	-0.043360074	-0.021631961	0.013726284	0.068959319	0.151931963	0.271076551	0.432771587	0.637488367	0.877105067	1.13651145	1.39791167	1.63644256	1.782629216	1.620477825	0.811582298	-0.293897657	-0.834762181	-0.034869621	-0.0365023	-0.038174194	-0.039861599	-0.041528645	-0.043122154	-0.044564297	-0.045742085	-0.046492283	-0.046579738	-0.045666262	-0.043266199	-0.038683638	-0.030925522	-0.018585825	0.000298537	0.028403628	0.069234729	0.127088029	0.206659213	0.312058448	0.445139836	0.603523955	0.779213062	0.95828955	1.119998138	1.230657606	1.229251851	1.023101261	0.567598916	0.021993459	-0.360911396	-0.029085222	-0.030153508	-0.031196458	-0.032184159	-0.033075193	-0.033812485	-0.034317617	-0.034483006	-0.034161176	-0.033150015	-0.031172633	-0.027850043	-0.02266465	-0.014912663	-0.003644635	0.012403412	0.034878452	0.06585448	0.107804579	0.163422789	0.23519456	0.324635392	0.43122712	0.551267032	0.676933731	0.795581467	0.888639864	0.929552549	0.883337134	0.718285532	0.440866439	0.124261726	-0.134394545	-0.289942121	-0.02423749	-0.024882002	-0.025461342	-0.025943978	-0.026288223	-0.026439028	-0.026323707	-0.02584628	-0.024879976	-0.023257331	-0.020757207	-0.017087949	-0.011865938	-0.004589047	0.005394633	0.018920628	0.037038663	0.061027914	0.09237512	0.132681302	0.183451806	0.245725111	0.31952333	0.403169392	0.492588182	0.580724876	0.657130877	0.707734562	0.715285484	0.662337141	0.539676301	0.358938271	0.156776893	-0.022245787	-0.150768856	-0.226181137	-0.020502327	-0.020742682	-0.020864212	-0.020827688	-0.020582827	-0.020065157	-0.019191967	-0.017857125	-0.015924449	-0.013219344	-0.00951835	-0.004536408	0.002088165	0.010810429	0.022195693	0.036933059	0.055839212	0.079841696	0.109925441	0.147021171	0.191812763	0.244448151	0.304159984	0.368837034	0.434622373	0.495631512	0.543892377	0.569684706	0.56269934	0.514720001	0.42409363	0.300082893	0.162585229	0.034693683	-0.067080806	-0.137228734	-0.016854262	-0.016720766	-0.016423315	-0.015917394	-0.015147234	-0.014042941	-0.012516922	-0.010459456	-0.007733275	-0.004167044	0.000452279	0.006388052	0.013963028	0.023567787	0.035666458	0.05079617	0.069554596	0.092567463	0.120425423	0.153578546	0.19217894	0.23587011	0.283537108	0.333052536	0.381074965	0.422974365	0.452981273	0.464700534	0.452184966	0.41170395	0.343917035	0.255334196	0.157495045	0.063457966	-0.016511821	-0.077376795	-0.013643998	-0.013333421	-0.012861323	-0.012189028	-0.011269006	-0.010042846	-0.00843879	-0.006368764	-0.003724858	-0.000375227	0.003840535	0.009116368	0.015684683	0.023820531	0.033843715	0.046116817	0.061036087	0.079010879	0.100426186	0.12558214	0.154605085	0.187328157	0.22314613	0.260860022	0.298540265	0.333450925	0.36208986	0.380411268	0.384304545	0.370383613	0.337038075	0.285464329	0.220122714	0.148072887	0.077194184	0.014091748	-0.037263704	-0.075696681	-0.010557714	-0.00997291	-0.009200613	-0.008200666	-0.006924545	-0.005313651	-0.003297318	-0.000790512	0.002308763	0.00612228	0.010794476	0.016495132	0.023421348	0.031798023	0.041875645	0.053923659	0.068217065	0.085013306	0.10451618	0.126823764	0.151858789	0.179283067	0.208402832	0.238079025	0.266664865	0.29200084	0.31150302	0.322381665	0.322017578	0.30849024	0.281178588	0.241248626	0.191766401	0.137243132	0.082677055	0.032456522	-0.010424484	-0.044597432	-0.007624752	-0.006798743	-0.005766164	-0.004486809	-0.002912854	-0.000987508	0.001356501	0.004198565	0.007631926	0.011765348	0.016724547	0.022653043	0.02971194	0.038077911	0.047938375	0.059482546	0.072886716	0.088291981	0.10577271	0.125294752	0.146663879	0.16946756	0.19301692	0.216300346	0.237964937	0.256345721	0.269563565	0.275708633	0.273113079	0.260689689	0.238271291	0.206841828	0.168536693	0.126344576	0.083564774	0.043196602	0.007471135	-0.022347303	-0.004863697	-0.003830077	-0.002577225	-0.001066063	0.000749186	0.002921993	0.005514572	0.008598938	0.012257867	0.016585636	0.021688302	0.027683224	0.034697362	0.042863763	0.052315457	0.063175827	0.075544444	0.089477391	0.104961451	0.12188229	0.13998806	0.15885183	0.177838743	0.196086564	0.212510687	0.225845813	0.234735169	0.237872721	0.234192658	0.223082669	0.204575933	0.179460425	0.149247819	0.115979266	0.08190456	0.049125037	0.019304826	-0.006480001	-0.002287756	-0.001079681	0.000354518	0.002051878	0.004055127	0.006413356	0.009182657	0.012426675	0.016216954	0.020632943	0.025761451	0.031695274	0.038530614	0.046362842	0.055280048	0.065353788	0.076626467	0.08909497	0.10269054	0.117255599	0.132519226	0.148074387	0.163361572	0.17766502	0.190128662	0.199798729	0.205697837	0.206930502	0.202812048	0.193002271	0.177614822	0.157268192	0.133050753	0.106393266	0.078872126	0.051991798	0.027001441	0.004784953	9.48E-05	0.001445429	0.003024047	0.00486499	0.007007259	0.009494909	0.012377351	0.015709485	0.019551581	0.02396876	0.029029899	0.034805729	0.041365842	0.048774282	0.057083352	0.066325329	0.076501816	0.087570722	0.099431209	0.111907484	0.124733103	0.137538329	0.149844002	0.161066101	0.170535364	0.177535552	0.181361891	0.181397456	0.177200053	0.168586182	0.155693938	0.139005894	0.119318624	0.097657892	0.07515413	0.052905237	0.03185702	0.012724122	0.002280095	0.003743255	0.005432031	0.007377621	0.009614904	0.012182593	0.015123259	0.018483157	0.022311773	0.026660956	0.031583505	0.037131025	0.043350848	0.050281818	0.057948706	0.066355139	0.075474988	0.085242393	0.095540903	0.106192631	0.11694884	0.127483927	0.13739527	0.146211612	0.153412524	0.158460543	0.160845895	0.160141074	0.156059266	0.148507424	0.137622783	0.123782194	0.10757777	0.089759597	0.071154715	0.05257803	0.034752508	0.01825238	0.004268051	0.005816042	0.007583817	0.009599202	0.011892793	0.014497923	0.017450482	0.02078852	0.024551577	0.028779614	0.033511462	0.038782638	0.044622406	0.051049956	0.058069594	0.065664937	0.073792174	0.082372682	0.091285479	0.100360326	0.109372621	0.118041522	0.12603298	0.13296935	0.138446903	0.142061788	0.14344366	0.142294435	0.138427667	0.131802376	0.122544411	0.11094935	0.097463725	0.082645707	0.067111103	0.051474012	0.036292436	0.022027303	0.006061775	0.007669498	0.009488458	0.011543036	0.013859573	0.016466194	0.019392483	0.02266895	0.026326228	0.030393929	0.034899073	0.039864006	0.045303731	0.051222582	0.057610227	0.064437043	0.071649013	0.079162427	0.086858854	0.094581064	0.102130745	0.109269069	0.115721192	0.121185663	0.12534938	0.127908062	0.128591278	0.127189931	0.123582925	0.117758916	0.10982889	0.100026105	0.088691834	0.076247969	0.063160237	0.049897778	0.036895382	0.024523707	0.00766696	0.009312056	0.011157809	0.013225214	0.015536518	0.018114959	0.020984337	0.02416841	0.027690039	0.03157004	0.035825689	0.040468824	0.045503504	0.050923213	0.056707628	0.062819041	0.069198598	0.07576264	0.082399522	0.088967469	0.095294084	0.101178225	0.106394954	0.110704068	0.113862462	0.115640042	0.115838262	0.114309639	0.110975932	0.105842259	0.09900451	0.090648051	0.081036948	0.070494588	0.059378139	0.048050469	0.036853477	0.026086264	0.009091317	0.010754193	0.012605722	0.01466366	0.016946428	0.019472785	0.022261354	0.025329984	0.028694899	0.032369609	0.036363536	0.040680347	0.045315958	0.050256247	0.055474506	0.060928745	0.066559008	0.072284944	0.078003955	0.083590332	0.088895826	0.093752142	0.097975747	0.101375284	0.103761586	0.104959927	0.10482374	0.103248515	0.100184283	0.095644861	0.089712206	0.082534705	0.074319022	0.065316204	0.055803626	0.046065147	0.036371976	0.026966537	0.010344059	0.012007828	0.013847341	0.015877335	0.018112731	0.020568274	0.023258046	0.026194827	0.029389292	0.032849008	0.036577217	0.040571403	0.044821641	0.049308763	0.054002402	0.05885901	0.063820012	0.068810282	0.073737213	0.078490669	0.082944136	0.086957391	0.090380907	0.093062102	0.094853354	0.095621389	0.095257435	0.093687169	0.090879355	0.086851948	0.081674629	0.075467053	0.068392674	0.060648636	0.05245282	0.044029587	0.035595863	0.027349099	0.013085794	0.014898514	0.016885582	0.01905878	0.021429324	0.024007383	0.026801474	0.029817721	0.033058961	0.036523691	0.04020487	0.044088574	0.048152563	0.052364814	0.056682107	0.061048808	0.065396003	0.069641176	0.07368866	0.077431054	0.080751822	0.083529171	0.085641235	0.086972425	0.08742062	0.086904693	0.085371672	0.082802761	0.079217404	0.074674722	0.0692719	0.063139479	0.056433913	0.04932814	0.042001188	0.03462793	0.014001404	0.015775309	0.017707607	0.019807312	0.022082588	0.024540294	0.027185422	0.030020439	0.033044502	0.036252573	0.039634427	0.043173588	0.046846232	0.050620106	0.054453567	0.058294823	0.062081525	0.065740842	0.069190181	0.072338686	0.075089628	0.077343742	0.079003476	0.079977998	0.080188699	0.079574796	0.078098512	0.075749312	0.072546618	0.068540591	0.06381072	0.058462204	0.052620408	0.046423912	0.040016835	0.033541194	0.014768086	0.016493632	0.018362086	0.020380058	0.022553116	0.024885362	0.027378933	0.030033414	0.032845174	0.035806632	0.038905451	0.042123713	0.045437098	0.048814111	0.052215459	0.055593628	0.058892782	0.062049083	0.064991532	0.067643432	0.069924523	0.071753799	0.073052964	0.073750371	0.073785246	0.07311186	0.071703317	0.069554543	0.066684113	0.063134646	0.058971589	0.05428043	0.049162524	0.043729896	0.038099509	0.032387511	0.017068934	0.018866875	0.020797476	0.022864129	0.025068684	0.027411	0.029888451	0.032495359	0.035222399	0.038055961	0.040977519	0.043963028	0.046982402	0.049999132	0.052970099	0.055845683	0.058570206	0.061082817	0.063318846	0.06521167	0.06669507	0.06770602	0.068187798	0.068093213	0.06738775	0.066052338	0.064085481	0.061504496	0.058345668	0.054663232	0.050527198	0.046020184	0.041233488	0.036262756	0.019238813	0.021078585	0.023036912	0.02511383	0.027307427	0.029613422	0.032024698	0.034530823	0.037117553	0.039766363	0.042454016	0.04515223	0.047827471	0.050440934	0.052948768	0.055302591	0.057450344	0.059337521	0.060908766	0.062109834	0.062889842	0.063203709	0.063014651	0.062296543	0.061035968	0.059233741	0.056905746	0.054082958	0.050810593	0.047146406	0.043158253	0.038921101	0.019493593	0.021240882	0.023090782	0.025041901	0.027090985	0.029232559	0.031458554	0.033757927	0.036116279	0.038515518	0.040933563	0.043344147	0.045716739	0.048016633	0.050205241	0.052240626	0.054078298	0.055672305	0.056976593	0.057946625	0.05854119	0.058724332	0.05846727	0.057750195	0.056563786	0.054910309	0.052804186	0.050271937	0.047351477	0.044090773	0.040545955	0.036779012	0.021300311	0.023043121	0.024871639	0.026781621	0.028766778	0.030818474	0.032925432	0.035073452	0.037245166	0.039419857	0.041573354	0.04367805	0.045703052	0.047614506	0.04937612	0.050949892	0.052297053	0.053379228	0.054159758	0.054605162	0.05468666	0.054381661	0.053675128	0.052560715	0.051041559	0.049130667	0.046850818	0.044233978	0.041320238	0.038156334	0.022909461	0.024619572	0.026396692	0.028234016	0.030122644	0.032051348	0.034006369	0.035971259	0.037926766	0.039850811	0.041718558	0.043502606	0.04517332	0.046699325	0.048048155	0.049187072	0.050084037	0.050708799	0.051034076	0.051036752	0.050699042	0.050009535	0.048964044	0.047566189	0.045827649	0.043768054	0.041414496	0.03880068	0.024300188	0.025951207	0.027649563	0.029386316	0.031150494	0.03292895	0.03470626	0.036464673	0.038184134	0.039842389	0.041415197	0.042876658	0.044199656	0.045356443	0.046319339	0.047061541	0.047558023	0.047786482	0.047728298	0.047369431	0.046701235	0.045721092	0.04443284	0.04284694	0.040980365	0.038856187	0.025458074	0.027026373	0.028622199	0.030234981	0.031852287	0.033459772	0.035041165	0.036578329	0.038051385	0.039438931	0.040718348	0.041866205	0.042858767	0.043672594	0.044285219	0.044675882	0.044826301	0.044721428	0.04435016	0.043705965	0.042787361	0.04159823	0.040147933	0.038451188	0.027840816	0.029314622	0.030785124	0.032239062	0.033661594	0.035036374	0.036345685	0.037570657	0.038691545	0.039688096	0.040539987	0.041227337	0.041731271	0.042034526	0.042122072	0.041981716	0.041604665	0.040986005	0.040125074	0.039025689	0.028397299	0.029734259	0.031049504	0.032329546	0.033559691	0.034724178	0.035806381	0.036789066	0.037654717	0.038385914	0.038965763	0.039378374	0.039609355	0.039646315	0.03947935	0.03910149	0.038509067	0.037702003	0.031047216	0.03214852	0.033184853	0.034141573	0.035003636	0.035755881	0.036383354	0.036871677	0.037207442	0.03737862	0.037374971	0.037188434
