	CoarseC0	CoarseC10	CoarseC20	CoarseC30	CoarseC40	CoarseC50	CoarseC60	CoarseC70	CoarseC80	CoarseC90	CoarseC100	CoarseC110	CoarseC120	CoarseC130	CoarseC140	CoarseC150	CoarseC160	CoarseC170	CoarseC180	CoarseC190	CoarseC200	CoarseC210	CoarseC220	CoarseC230	CoarseC240	CoarseC250	
CoarseR0	-1.79308e-009	-1.78073e-009	-1.76386e-009	-1.74277e-009	-1.71742e-009	-1.68909e-009	-1.65829e-009	-1.6242e-009	-1.58812e-009	-1.54897e-009	-1.50587e-009	-1.45456e-009	-1.40251e-009	-1.35479e-009	-1.31009e-009	-1.26868e-009	-1.22852e-009	-1.19103e-009	-1.15586e-009	-1.12324e-009	-1.09286e-009	-1.06429e-009	-1.03745e-009	-1.01188e-009	-9.88916e-010	-9.66394e-010	
CoarseR10	-1.38285e-009	-1.36624e-009	-1.34639e-009	-1.32311e-009	-1.29687e-009	-1.26789e-009	-1.236e-009	-1.20195e-009	-1.16514e-009	-1.12478e-009	-1.0748e-009	-1.02516e-009	-9.78734e-010	-9.3589e-010	-8.95604e-010	-8.57406e-010	-8.2147e-010	-7.88427e-010	-7.56628e-010	-7.27582e-010	-7.0031e-010	-6.74758e-010	-6.51029e-010	-6.2835e-010	-6.0743e-010	-5.87422e-010	
CoarseR20	-1.13469e-009	-1.11564e-009	-1.09499e-009	-1.07046e-009	-1.04319e-009	-1.01317e-009	-9.80463e-010	-9.45375e-010	-9.07017e-010	-8.58747e-010	-8.09013e-010	-7.63719e-010	-7.21081e-010	-6.81227e-010	-6.43709e-010	-6.08545e-010	-5.75361e-010	-5.4502e-010	-5.16198e-010	-4.89577e-010	-4.64638e-010	-4.41203e-010	-4.19186e-010	-3.98615e-010	-3.79354e-010	-3.61713e-010	
CoarseR30	-9.66173e-010	-9.45841e-010	-9.23822e-010	-8.97794e-010	-8.69499e-010	-8.38451e-010	-8.04486e-010	-7.67615e-010	-7.23075e-010	-6.72769e-010	-6.2605e-010	-5.83677e-010	-5.43073e-010	-5.04896e-010	-4.69587e-010	-4.3711e-010	-4.06386e-010	-3.78092e-010	-3.51513e-010	-3.26553e-010	-3.03429e-010	-2.81601e-010	-2.61559e-010	-2.42187e-010	-2.24338e-010	-2.07379e-010	
CoarseR40	-8.44148e-010	-8.22733e-010	-7.98971e-010	-7.72166e-010	-7.42202e-010	-7.10057e-010	-6.7456e-010	-6.34428e-010	-5.82951e-010	-5.35528e-010	-4.91568e-010	-4.50252e-010	-4.11476e-010	-3.75041e-010	-3.42011e-010	-3.11039e-010	-2.82398e-010	-2.5573e-010	-2.30501e-010	-2.0713e-010	-1.85109e-010	-1.64901e-010	-1.45654e-010	-1.27563e-010	-1.11199e-010	-9.52176e-011	
CoarseR50	-7.53098e-010	-7.29635e-010	-7.04753e-010	-6.76396e-010	-6.45645e-010	-6.11865e-010	-5.74151e-010	-5.2568e-010	-4.76476e-010	-4.30751e-010	-3.88011e-010	-3.47757e-010	-3.1045e-010	-2.76411e-010	-2.44582e-010	-2.15189e-010	-1.87875e-010	-1.62599e-010	-1.38696e-010	-1.16538e-010	-9.56988e-011	-7.60924e-011	-5.81428e-011	-4.07047e-011	-2.51295e-011	-1.02907e-011	
CoarseR60	-6.80838e-010	-6.56262e-010	-6.29988e-010	-6.00628e-010	-5.68437e-010	-5.33038e-010	-4.91029e-010	-4.38797e-010	-3.91322e-010	-3.46968e-010	-3.04578e-010	-2.66046e-010	-2.30028e-010	-1.97175e-010	-1.66648e-010	-1.38848e-010	-1.12282e-010	-8.81635e-011	-6.53635e-011	-4.41046e-011	-2.44113e-011	-5.98626e-012	1.13481e-011	2.73732e-011	4.25659e-011	5.68899e-011	
CoarseR70	-6.22917e-010	-5.96523e-010	-5.69173e-010	-5.38382e-010	-5.04553e-010	-4.66885e-010	-4.1829e-010	-3.67565e-010	-3.20946e-010	-2.77092e-010	-2.36207e-010	-1.98462e-010	-1.64108e-010	-1.32187e-010	-1.032e-010	-7.61556e-011	-5.08474e-011	-2.74165e-011	-5.28251e-012	1.46319e-011	3.39073e-011	5.16818e-011	6.81262e-011	8.36968e-011	9.82115e-011	1.11428e-010	
CoarseR80	-5.747e-010	-5.46419e-010	-5.1766e-010	-4.8583e-010	-4.50626e-010	-4.10302e-010	-3.56762e-010	-3.0725e-010	-2.61727e-010	-2.17811e-010	-1.7812e-010	-1.41779e-010	-1.08278e-010	-7.75992e-011	-4.91479e-011	-2.34159e-011	1.25182e-012	2.38633e-011	4.51276e-011	6.44443e-011	8.28382e-011	9.97134e-011	1.15965e-010	1.30661e-010	1.44294e-010	1.57314e-010	
CoarseR90	-5.32926e-010	-5.04177e-010	-4.74083e-010	-4.40795e-010	-4.04018e-010	-3.57478e-010	-3.04228e-010	-2.55824e-010	-2.10348e-010	-1.6729e-010	-1.28524e-010	-9.30958e-011	-6.08742e-011	-3.13663e-011	-3.46587e-012	2.17031e-011	4.57382e-011	6.74987e-011	8.78682e-011	1.06999e-010	1.24791e-010	1.41021e-010	1.5661e-010	1.7088e-010	1.83614e-010	1.96176e-010	
CoarseR100	-4.96871e-010	-4.66709e-010	-4.36216e-010	-4.01684e-010	-3.62511e-010	-3.10985e-010	-2.58529e-010	-2.11037e-010	-1.65318e-010	-1.23163e-010	-8.5296e-011	-5.13244e-011	-1.92624e-011	9.90116e-012	3.65178e-011	6.09836e-011	8.44557e-011	1.05789e-010	1.25624e-010	1.44314e-010	1.6118e-010	1.77256e-010	1.91693e-010	2.05559e-010	2.18078e-010	2.29934e-010	
CoarseR110	-4.66368e-010	-4.34879e-010	-4.02791e-010	-3.66841e-010	-3.25533e-010	-2.70014e-010	-2.18585e-010	-1.70213e-010	-1.25635e-010	-8.47272e-011	-4.75683e-011	-1.40276e-011	1.71489e-011	4.55052e-011	7.17586e-011	9.56673e-011	1.18232e-010	1.38912e-010	1.58568e-010	1.76393e-010	1.92835e-010	2.08453e-010	2.22751e-010	2.35902e-010	2.47967e-010	2.5888e-010	
CoarseR120	-4.38593e-010	-4.06002e-010	-3.72487e-010	-3.35661e-010	-2.88853e-010	-2.33503e-010	-1.82428e-010	-1.34371e-010	-9.0029e-011	-4.99948e-011	-1.3721e-011	1.91046e-011	4.98697e-011	7.73916e-011	1.03024e-010	1.27067e-010	1.48767e-010	1.69062e-010	1.88043e-010	2.04968e-010	2.21219e-010	2.36411e-010	2.49974e-010	2.63169e-010	2.74741e-010	2.8519e-010	
CoarseR130	-4.1411e-010	-3.79985e-010	-3.46049e-010	-3.0731e-010	-2.55572e-010	-2.01086e-010	-1.50497e-010	-1.01533e-010	-5.88549e-011	-1.88265e-011	1.65457e-011	4.9257e-011	7.87234e-011	1.06389e-010	1.31369e-010	1.54255e-010	1.76073e-010	1.9547e-010	2.14054e-010	2.30976e-010	2.4706e-010	2.61314e-010	2.74662e-010	2.87116e-010	2.98213e-010	3.08396e-010	
CoarseR140	-3.92284e-010	-3.56965e-010	-3.21523e-010	-2.81234e-010	-2.25523e-010	-1.71493e-010	-1.20135e-010	-7.25219e-011	-2.98488e-011	8.97974e-012	4.38545e-011	7.5929e-011	1.05046e-010	1.31844e-010	1.56695e-010	1.79459e-010	2.00294e-010	2.19582e-010	2.37675e-010	2.5473e-010	2.69863e-010	2.8409e-010	2.96686e-010	3.08624e-010	3.19489e-010	3.28884e-010	
CoarseR150	-3.72044e-010	-3.35902e-010	-2.99339e-010	-2.57158e-010	-1.98891e-010	-1.44918e-010	-9.31064e-011	-4.6118e-011	-4.51508e-012	3.38166e-011	6.85429e-011	1.00004e-010	1.29029e-010	1.55613e-010	1.7962e-010	2.01727e-010	2.22938e-010	2.41768e-010	2.59662e-010	2.75983e-010	2.90603e-010	3.04143e-010	3.16725e-010	3.28205e-010	3.385e-010	3.47891e-010	
CoarseR160	-3.53663e-010	-3.16383e-010	-2.78969e-010	-2.32582e-010	-1.74278e-010	-1.204e-010	-6.85392e-011	-2.18194e-011	1.96605e-011	5.70402e-011	9.14303e-011	1.22327e-010	1.50922e-010	1.76707e-010	2.00747e-010	2.22933e-010	2.43426e-010	2.62056e-010	2.79551e-010	2.95338e-010	3.09763e-010	3.23082e-010	3.35117e-010	3.46025e-010	3.55819e-010	3.64684e-010	
CoarseR170	-3.36452e-010	-2.98405e-010	-2.59734e-010	-2.09028e-010	-1.51057e-010	-9.69529e-011	-4.54534e-011	2.97605e-013	4.12471e-011	7.88716e-011	1.12583e-010	1.43312e-010	1.71316e-010	1.97187e-010	2.20605e-010	2.4228e-010	2.62348e-010	2.80796e-010	2.9801e-010	3.13341e-010	3.27511e-010	3.40229e-010	3.52088e-010	3.62455e-010	3.7221e-010	3.80449e-010	
CoarseR180	-3.21175e-010	-2.82225e-010	-2.42099e-010	-1.87777e-010	-1.29971e-010	-7.56655e-011	-2.45263e-011	2.04337e-011	6.11396e-011	9.82753e-011	1.32135e-010	1.62212e-010	1.90086e-010	2.15173e-010	2.38657e-010	2.60222e-010	2.79788e-010	2.97922e-010	3.14683e-010	3.29794e-010	3.43665e-010	3.56127e-010	3.67422e-010	3.77776e-010	3.86634e-010	3.94583e-010	
CoarseR190	-3.06536e-010	-2.66463e-010	-2.25244e-010	-1.68345e-010	-1.10827e-010	-5.57949e-011	-5.46495e-012	3.98787e-011	7.98233e-011	1.16535e-010	1.50023e-010	1.79647e-010	2.07657e-010	2.32591e-010	2.55644e-010	2.76669e-010	2.96332e-010	3.14033e-010	3.30492e-010	3.45266e-010	3.58982e-010	3.7112e-010	3.81828e-010	3.92135e-010	4.00149e-010	4.07742e-010	
CoarseR200	-2.92774e-010	-2.51795e-010	-2.0961e-010	-1.5046e-010	-9.26087e-011	-3.71819e-011	1.30082e-011	5.75118e-011	9.72958e-011	1.33826e-010	1.66714e-010	1.96473e-010	2.23737e-010	2.48508e-010	2.71341e-010	2.9195e-010	3.11277e-010	3.2876e-010	3.45292e-010	3.5959e-010	3.72885e-010	3.84746e-010	3.9543e-010	4.04575e-010	4.131e-010	4.19829e-010	
CoarseR210	-2.80347e-010	-2.38568e-010	-1.9439e-010	-1.3293e-010	-7.51561e-011	-2.00147e-011	2.96922e-011	7.39807e-011	1.13773e-010	1.49708e-010	1.82391e-010	2.11528e-010	2.3906e-010	2.63943e-010	2.86252e-010	3.06622e-010	3.25505e-010	3.42731e-010	3.5917e-010	3.73462e-010	3.85995e-010	3.97837e-010	4.08134e-010	4.17236e-010	4.24567e-010	4.31178e-010	
CoarseR220	-2.68225e-010	-2.25238e-010	-1.7919e-010	-1.17112e-010	-5.84528e-011	-3.42984e-012	4.5721e-011	8.96405e-011	1.2891e-010	1.6458e-010	1.97196e-010	2.26378e-010	2.53193e-010	2.77627e-010	2.99957e-010	3.2034e-010	3.39231e-010	3.56197e-010	3.72155e-010	3.86079e-010	3.9884e-010	4.09801e-010	4.19822e-010	4.28189e-010	4.3543e-010	4.41143e-010	
CoarseR230	-2.56827e-010	-2.13024e-010	-1.64102e-010	-1.0194e-010	-4.3355e-011	1.1776e-011	6.07859e-011	1.0424e-010	1.43367e-010	1.78979e-010	2.11019e-010	2.39764e-010	2.66747e-010	2.90857e-010	3.13283e-010	3.33448e-010	3.52093e-010	3.68707e-010	3.84139e-010	3.98052e-010	4.1016e-010	4.21339e-010	4.3079e-010	4.39121e-010	4.45965e-010	4.51244e-010	
CoarseR240	-2.46167e-010	-2.01613e-010	-1.49946e-010	-8.79564e-011	-2.88674e-011	2.56055e-011	7.42395e-011	1.17743e-010	1.57027e-010	1.91829e-010	2.24003e-010	2.52987e-010	2.79785e-010	3.03419e-010	3.25358e-010	3.45522e-010	3.64132e-010	3.8049e-010	3.96135e-010	4.09161e-010	4.20995e-010	4.31869e-010	4.41428e-010	4.48826e-010	4.55361e-010	4.59975e-010	
CoarseR250	-2.36083e-010	-1.90859e-010	-1.36923e-010	-7.47088e-011	-1.50748e-011	3.91665e-011	8.7576e-011	1.30863e-010	1.69339e-010	2.04267e-010	2.36273e-010	2.64933e-010	2.91338e-010	3.15334e-010	3.37044e-010	3.572e-010	3.74938e-010	3.91619e-010	4.06887e-010	4.19953e-010	4.31639e-010	4.4185e-010	4.51114e-010	4.58438e-010	4.64182e-010	4.68439e-010	
MinCout:	2.97605e-013	CoarseR:	170	CoarseC:	70

	CoarseC130	CoarseC131	CoarseC132	CoarseC133	CoarseC134	CoarseC135	CoarseC136	CoarseC137	CoarseC138	CoarseC139	CoarseC140	CoarseC141	CoarseC142	CoarseC143	CoarseC144	CoarseC145	CoarseC146	CoarseC147	CoarseC148	CoarseC149	CoarseC150	
CoarseR80	-7.75992e-011	-7.47811e-011	-7.19478e-011	-6.88533e-011	-6.62217e-011	-6.31936e-011	-6.0559e-011	-5.7459e-011	-5.50144e-011	-5.19802e-011	-4.91479e-011	-4.72318e-011	-4.45912e-011	-4.14836e-011	-3.86454e-011	-3.60647e-011	-3.34199e-011	-3.12262e-011	-2.81889e-011	-2.59932e-011	-2.34159e-011	
CoarseR81	-7.26642e-011	-6.95708e-011	-6.66662e-011	-6.41051e-011	-6.13906e-011	-5.81007e-011	-5.54655e-011	-5.26259e-011	-4.97954e-011	-4.74177e-011	-4.47767e-011	-4.21362e-011	-3.92998e-011	-3.6451e-011	-3.38074e-011	-3.09664e-011	-2.85805e-011	-2.593e-011	-2.33482e-011	-2.0695e-011	-1.87679e-011	
CoarseR82	-6.80684e-011	-6.51641e-011	-6.2069e-011	-5.9245e-011	-5.61469e-011	-5.35115e-011	-5.06728e-011	-4.75708e-011	-4.49323e-011	-4.23604e-011	-3.97197e-011	-3.70765e-011	-3.46949e-011	-3.1662e-011	-2.94715e-011	-2.61652e-011	-2.39728e-011	-2.1397e-011	-1.82803e-011	-1.61596e-011	-1.37033e-011	
CoarseR83	-6.29892e-011	-6.01576e-011	-5.72517e-011	-5.44264e-011	-5.13272e-011	-4.89536e-011	-4.58518e-011	-4.30199e-011	-4.03802e-011	-3.75365e-011	-3.48948e-011	-3.22506e-011	-2.98687e-011	-2.70278e-011	-2.46435e-011	-2.15298e-011	-1.89538e-011	-1.67602e-011	-1.37169e-011	-1.17902e-011	-9.33314e-012	
CoarseR84	-5.84803e-011	-5.53837e-011	-5.22856e-011	-4.96498e-011	-4.65493e-011	-4.41751e-011	-4.12652e-011	-3.84319e-011	-3.6054e-011	-3.29468e-011	-3.03039e-011	-2.7727e-011	-2.52762e-011	-2.22393e-011	-2.00489e-011	-1.70087e-011	-1.45543e-011	-1.19675e-011	-9.11711e-012	-7.19006e-012	-4.53678e-012	
CoarseR85	-5.33344e-011	-5.05091e-011	-4.74101e-011	-4.45813e-011	-4.24011e-011	-3.91043e-011	-3.61931e-011	-3.35522e-011	-3.11741e-011	-2.80658e-011	-2.54964e-011	-2.31143e-011	-2.06627e-011	-1.76173e-011	-1.51641e-011	-1.2122e-011	-9.92954e-012	-7.54363e-012	-4.75849e-012	-2.30043e-012	3.53926e-013	
CoarseR86	-4.89633e-011	-4.5943e-011	-4.30344e-011	-4.03981e-011	-3.75593e-011	-3.47262e-011	-3.18853e-011	-2.9243e-011	-2.64049e-011	-2.37547e-011	-2.11084e-011	-1.86571e-011	-1.60827e-011	-1.30361e-011	-1.05818e-011	-7.99927e-012	-5.54357e-012	-2.9553e-012	-1.02032e-013	2.02164e-012	4.48107e-012	
CoarseR87	-4.41702e-011	-4.15335e-011	-3.86988e-011	-3.58673e-011	-3.32221e-011	-3.03875e-011	-2.72806e-011	-2.49026e-011	-2.17978e-011	-1.91477e-011	-1.65748e-011	-1.41225e-011	-1.15415e-011	-8.62279e-012	-6.30728e-012	-3.3868e-012	-1.26357e-012	1.39034e-012	4.24522e-012	6.3697e-012	8.83e-012	
CoarseR88	-4.0083e-011	-3.72466e-011	-3.41442e-011	-3.15057e-011	-2.85938e-011	-2.57579e-011	-2.29912e-011	-2.02717e-011	-1.74308e-011	-1.50499e-011	-1.24024e-011	-1.00182e-011	-7.36855e-012	-4.58909e-012	-2.13336e-012	7.18324e-013	3.1075e-012	5.49767e-012	8.81893e-012	1.07474e-011	1.32084e-011	
CoarseR89	-3.56992e-011	-3.24022e-011	-2.9569e-011	-2.69273e-011	-2.42829e-011	-2.16392e-011	-1.87969e-011	-1.6151e-011	-1.33085e-011	-1.04641e-011	-7.81212e-012	-5.62725e-012	-3.04451e-012	-1.95712e-013	2.45975e-012	4.8485e-012	7.70368e-012	9.89779e-012	1.27559e-011	1.54144e-011	1.73442e-011	
CoarseR90	-3.13663e-011	-2.82625e-011	-2.53503e-011	-2.25143e-011	-1.99445e-011	-1.70295e-011	-1.41885e-011	-1.18089e-011	-8.96457e-012	-6.31333e-012	-3.85967e-012	-1.27975e-012	1.37258e-012	4.22612e-012	6.61458e-012	9.27183e-012	1.18608e-011	1.42527e-011	1.69115e-011	1.90421e-011	2.17031e-011	
CoarseR91	-2.70055e-011	-2.39002e-011	-2.12572e-011	-1.81492e-011	-1.5773e-011	-1.29319e-011	-1.00151e-011	-7.43932e-012	-4.78985e-012	-1.67365e-012	7.0999e-013	3.095e-012	5.74873e-012	8.6031e-012	1.07935e-011	1.33808e-011	1.60413e-011	1.87001e-011	2.12947e-011	2.34906e-011	2.58862e-011	
CoarseR92	-2.23495e-011	-1.97062e-011	-1.68686e-011	-1.37592e-011	-1.13824e-011	-8.53962e-012	-5.89092e-012	-2.77593e-012	-3.94076e-013	2.25786e-012	4.6422e-012	7.29602e-012	1.01496e-011	1.25375e-011	1.51944e-011	1.77848e-011	2.02457e-011	2.25725e-011	2.52338e-011	2.78313e-011	3.00296e-011	
CoarseR93	-1.82062e-011	-1.58328e-011	-1.25273e-011	-1.00775e-011	-7.50543e-012	-4.85677e-012	-1.74206e-012	9.0859e-013	3.48783e-012	6.60696e-012	8.72372e-012	1.11811e-011	1.38371e-011	1.64249e-011	1.92835e-011	2.16746e-011	2.43351e-011	2.62627e-011	2.93938e-011	3.19934e-011	3.39251e-011	
CoarseR94	-1.42342e-011	-1.12001e-011	-8.3591e-012	-5.7112e-012	-2.99044e-012	-4.15858e-013	2.43153e-012	5.35223e-012	8.20266e-012	1.05868e-011	1.32419e-011	1.53612e-011	1.80188e-011	2.08751e-011	2.35347e-011	2.61272e-011	2.8789e-011	3.1188e-011	3.37827e-011	3.57136e-011	3.81801e-011	
CoarseR95	-9.84783e-012	-7.00739e-012	-4.165e-012	-1.51863e-012	1.13121e-012	3.70682e-012	6.82725e-012	9.67537e-012	1.2062e-011	1.47149e-011	1.73719e-011	1.9831e-011	2.19518e-011	2.52781e-011	2.74698e-011	3.0333e-011	3.27295e-011	3.48605e-011	3.75229e-011	4.01266e-011	4.23285e-011	
CoarseR96	-5.51357e-012	-2.86552e-012	-2.14106e-014	2.42756e-012	5.2748e-012	7.92725e-012	1.07741e-011	1.36266e-011	1.62826e-011	1.86679e-011	2.15251e-011	2.37179e-011	2.63741e-011	2.92358e-011	3.1161e-011	3.4024e-011	3.64202e-011	3.90858e-011	4.14193e-011	4.3887e-011	4.60202e-011	
CoarseR97	-2.09512e-012	5.54068e-013	3.66855e-012	6.31984e-012	8.89552e-012	1.18176e-011	1.46695e-011	1.70529e-011	1.97097e-011	2.22943e-011	2.49535e-011	2.7347e-011	2.97368e-011	3.2666e-011	3.49928e-011	3.79239e-011	4.00544e-011	4.24553e-011	4.53219e-011	4.75248e-011	4.94581e-011	
CoarseR98	1.82001e-012	4.93455e-012	7.58608e-012	1.02332e-011	1.30833e-011	1.5738e-011	1.83181e-011	2.11736e-011	2.36327e-011	2.65592e-011	2.88793e-011	3.1341e-011	3.39319e-011	3.65957e-011	3.94623e-011	4.18563e-011	4.39856e-011	4.6453e-011	4.90543e-011	5.14592e-011	5.36581e-011	
CoarseR99	5.74613e-012	8.39749e-012	1.12458e-011	1.43644e-011	1.6745e-011	1.95986e-011	2.2256e-011	2.46404e-011	2.74989e-011	2.99596e-011	3.25478e-011	3.50105e-011	3.76088e-011	4.0468e-011	4.29334e-011	4.55304e-011	4.7933e-011	5.03301e-011	5.29392e-011	5.51376e-011	5.73436e-011	
CoarseR100	9.62539e-012	1.22716e-011	1.51248e-011	1.77774e-011	2.07017e-011	2.32819e-011	2.59405e-011	2.85245e-011	3.11856e-011	3.38475e-011	3.64369e-011	3.8634e-011	4.12993e-011	4.41601e-011	4.6563e-011	4.89586e-011	5.16284e-011	5.35592e-011	5.66372e-011	5.88435e-011	6.1245e-011	
MinCout:	-2.14106e-014	CoarseR:	96	CoarseC:	132

	FineC0	FineC10	FineC20	FineC30	FineC40	FineC50	FineC60	FineC70	FineC80	FineC90	FineC100	FineC110	FineC120	FineC130	FineC140	FineC150	FineC160	FineC170	FineC180	FineC190	FineC200	FineC210	FineC220	FineC230	FineC240	FineC250	
FineR0	-2.17894e-010	-1.83555e-010	-1.60838e-010	-1.43416e-010	-1.29572e-010	-1.18115e-010	-1.08419e-010	-1.01003e-010	-9.37089e-011	-8.80542e-011	-8.30472e-011	-7.87027e-011	-7.47362e-011	-7.09725e-011	-6.79291e-011	-6.50896e-011	-6.22476e-011	-6.00489e-011	-5.78626e-011	-5.61397e-011	-5.4144e-011	-5.26148e-011	-5.08882e-011	-4.92972e-011	-4.80334e-011	-4.66952e-011	
FineR10	-1.85678e-010	-1.51412e-010	-1.29316e-010	-1.1207e-010	-9.82128e-011	-8.70186e-011	-7.80343e-011	-6.98823e-011	-6.33064e-011	-5.76448e-011	-5.23702e-011	-4.82111e-011	-4.40481e-011	-4.07343e-011	-3.7959e-011	-3.48428e-011	-3.22646e-011	-2.98059e-011	-2.76158e-011	-2.58817e-011	-2.43521e-011	-2.23616e-011	-2.08303e-011	-1.97637e-011	-1.8231e-011	-1.69015e-011	
FineR20	-1.71358e-010	-1.37827e-010	-1.15456e-010	-9.84803e-011	-8.46178e-011	-7.36852e-011	-6.41525e-011	-5.654e-011	-4.99577e-011	-4.42226e-011	-3.92107e-011	-3.48558e-011	-3.06201e-011	-2.7381e-011	-2.453e-011	-2.14858e-011	-1.88309e-011	-1.69048e-011	-1.47131e-011	-1.25199e-011	-1.09896e-011	-9.45871e-012	-7.92706e-012	-6.12836e-012	-5.06374e-012	-3.72725e-012	
FineR30	-1.62781e-010	-1.29508e-010	-1.07134e-010	-9.06148e-011	-7.67418e-011	-6.55402e-011	-5.65516e-011	-4.88594e-011	-4.20095e-011	-3.63454e-011	-3.13332e-011	-2.71714e-011	-2.32009e-011	-1.94998e-011	-1.6649e-011	-1.35993e-011	-1.14103e-011	-8.75273e-012	-6.82906e-012	-5.03108e-012	-3.10464e-012	-1.30516e-012	-3.90523e-014	1.49371e-012	2.62551e-012	3.69362e-012	
FineR40	-1.57851e-010	-1.24023e-010	-1.02102e-010	-8.51312e-011	-7.1449e-011	-6.03224e-011	-5.1521e-011	-4.337e-011	-3.70541e-011	-3.1121e-011	-2.63018e-011	-2.19451e-011	-1.79768e-011	-1.46635e-011	-1.142e-011	-8.76661e-012	-6.17992e-012	-3.98861e-012	-1.79579e-012	1.99225e-013	1.92891e-012	3.46001e-012	5.19216e-012	6.7926e-012	7.86024e-012	8.92855e-012	
FineR50	-1.54054e-010	-1.20417e-010	-9.84011e-011	-8.16085e-011	-6.81995e-011	-5.67227e-011	-4.77284e-011	-3.98453e-011	-3.32612e-011	-2.7791e-011	-2.25089e-011	-1.81519e-011	-1.44502e-011	-1.1137e-011	-7.82337e-012	-5.23951e-012	-2.58434e-012	-1.94659e-013	1.73197e-012	3.26137e-012	5.52554e-012	7.05651e-012	8.32036e-012	1.00537e-011	1.13891e-011	1.27233e-011	
FineR60	-1.51383e-010	-1.17835e-010	-9.54583e-011	-7.89285e-011	-6.50652e-011	-5.41305e-011	-4.50593e-011	-3.72501e-011	-3.08599e-011	-2.49253e-011	-2.01063e-011	-1.57486e-011	-1.19746e-011	-8.53649e-012	-5.41882e-012	-2.56761e-012	8.78634e-014	2.01227e-012	4.40443e-012	6.39965e-012	8.12983e-012	9.66105e-012	1.1193e-011	1.27938e-011	1.40595e-011	1.51277e-011	
FineR70	-1.48944e-010	-1.15754e-010	-9.33786e-011	-7.66695e-011	-6.32597e-011	-5.22397e-011	-4.32528e-011	-3.49026e-011	-2.8318e-011	-2.28475e-011	-1.80302e-011	-1.3598e-011	-9.70091e-012	-6.46025e-012	-3.34246e-012	-5.61357e-013	1.89722e-012	4.55586e-012	6.7492e-012	8.47632e-012	1.02066e-011	1.17378e-011	1.32697e-011	1.46041e-011	1.56715e-011	1.72046e-011	
FineR80	-1.47111e-010	-1.13836e-010	-9.19108e-011	-7.51981e-011	-6.14284e-011	-5.04964e-011	-4.12377e-011	-3.33497e-011	-2.70368e-011	-2.1567e-011	-1.64804e-011	-1.21233e-011	-8.42183e-012	-4.71587e-012	-1.66875e-012	1.18325e-012	3.64185e-012	5.8342e-012	7.7593e-012	9.95408e-012	1.14843e-011	1.34829e-011	1.50148e-011	1.63491e-011	1.74165e-011	1.895e-011	
FineR90	-1.45707e-010	-1.12347e-010	-9.04237e-011	-7.37126e-011	-6.00317e-011	-4.88269e-011	-3.98371e-011	-3.21424e-011	-2.56322e-011	-1.98924e-011	-1.5074e-011	-1.09114e-011	-6.74535e-012	-3.23576e-012	-3.86045e-013	2.663e-012	5.12141e-012	7.51201e-012	9.23848e-012	1.14332e-011	1.31636e-011	1.46947e-011	1.64938e-011	1.75605e-011	1.90937e-011	2.04288e-011	
FineR100	-1.44299e-010	-1.1139e-010	-8.92883e-011	-7.24863e-011	-5.88938e-011	-4.78757e-011	-3.8888e-011	-3.11931e-011	-2.46846e-011	-1.89452e-011	-1.41275e-011	-9.501e-012	-5.79887e-012	-2.28971e-012	7.56366e-013	3.60814e-012	6.19458e-012	8.65474e-012	1.08482e-011	1.23774e-011	1.41077e-011	1.56387e-011	1.71704e-011	1.87057e-011	2.00373e-011	2.11053e-011	
FineR110	-1.43424e-010	-1.10239e-010	-8.84137e-011	-7.16116e-011	-5.77472e-011	-4.67296e-011	-3.77413e-011	-3.01229e-011	-2.35388e-011	-1.77997e-011	-1.30574e-011	-8.89415e-012	-4.92317e-012	-1.41422e-012	1.82987e-012	4.48417e-012	6.67435e-012	9.53082e-012	1.12586e-011	1.32536e-011	1.49839e-011	1.65149e-011	1.80466e-011	1.9648e-011	2.09137e-011	2.22488e-011	
FineR120	-1.42995e-010	-1.09638e-010	-8.72628e-011	-7.10085e-011	-5.70557e-011	-4.61246e-011	-3.71308e-011	-2.95169e-011	-2.29323e-011	-1.69969e-011	-1.19097e-011	-7.94369e-012	-3.84968e-012	-5.37258e-013	2.50921e-012	5.3612e-012	8.01703e-012	1.02087e-011	1.21339e-011	1.41306e-011	1.58588e-011	1.76596e-011	1.89239e-011	2.02578e-011	2.17909e-011	2.31262e-011	
FineR130	-1.41928e-010	-1.0857e-010	-8.69224e-011	-6.99385e-011	-5.65297e-011	-4.55122e-011	-3.6524e-011	-2.86354e-011	-2.20518e-011	-1.63129e-011	-1.15709e-011	-6.86956e-012	-3.43722e-012	3.40393e-013	3.11837e-012	5.97063e-012	8.62671e-012	1.05504e-011	1.27438e-011	1.49388e-011	1.6469e-011	1.82673e-011	1.97326e-011	2.13343e-011	2.24016e-011	2.34696e-011	
FineR140	-1.41603e-010	-1.08142e-010	-8.61265e-011	-6.95158e-011	-5.59234e-011	-4.49053e-011	-3.57222e-011	-2.80276e-011	-2.14436e-011	-1.55085e-011	-1.09605e-011	-6.33311e-012	-2.36211e-012	9.49919e-013	3.72766e-012	6.57977e-012	8.9673e-012	1.11591e-011	1.33524e-011	1.53491e-011	1.72778e-011	1.90768e-011	2.041e-011	2.19423e-011	2.30095e-011	2.40774e-011	
FineR150	-1.40794e-010	-1.07798e-010	-8.57838e-011	-6.87982e-011	-5.55737e-011	-4.43695e-011	-3.51859e-011	-2.74909e-011	-2.09066e-011	-1.5167e-011	-1.06193e-011	-5.72259e-012	-2.0209e-012	1.21947e-012	4.06869e-012	7.38655e-012	9.57628e-012	1.19658e-011	1.39611e-011	1.58881e-011	1.78861e-011	1.94171e-011	2.09487e-011	2.22831e-011	2.38161e-011	2.4884e-011	
FineR160	-1.4017e-010	-1.06813e-010	-8.49743e-011	-6.83646e-011	-5.47653e-011	-4.37552e-011	-3.45725e-011	-2.68782e-011	-2.05648e-011	-1.43595e-011	-9.8119e-012	-5.45378e-012	-1.67921e-012	1.82958e-012	4.87579e-012	7.7279e-012	1.01152e-011	1.2307e-011	1.45003e-011	1.64969e-011	1.8225e-011	1.99566e-011	2.14883e-011	2.25549e-011	2.41571e-011	2.54238e-011	
FineR170	-1.39636e-010	-1.0673e-010	-8.46309e-011	-6.81024e-011	-5.4422e-011	-4.36782e-011	-3.42253e-011	-2.66116e-011	-2.02197e-011	-1.42852e-011	-9.27392e-012	-5.03841e-012	-1.14057e-012	2.36802e-012	5.41481e-012	8.06903e-012	1.04568e-011	1.28458e-011	1.50392e-011	1.67683e-011	1.85658e-011	2.0298e-011	2.18297e-011	2.31634e-011	2.46965e-011	2.57644e-011	
FineR180	-1.3927e-010	-1.06195e-010	-8.4549e-011	-6.75661e-011	-5.41581e-011	-4.28693e-011	-3.39591e-011	-2.62652e-011	-1.9682e-011	-1.37472e-011	-9.19995e-012	-4.50006e-012	-6.02056e-013	2.7095e-012	5.75527e-012	8.60707e-012	1.07969e-011	1.31855e-011	1.53785e-011	1.71073e-011	1.91051e-011	2.03684e-011	2.18999e-011	2.37001e-011	2.47671e-011	2.61019e-011	
FineR190	-1.39015e-010	-1.05659e-010	-8.4013e-011	-6.74858e-011	-5.38069e-011	-4.2604e-011	-3.34216e-011	-2.57275e-011	-1.9144e-011	-1.34791e-011	-8.6616e-012	-4.50016e-012	-5.29589e-013	2.97916e-012	6.02581e-012	8.87795e-012	1.12651e-011	1.37247e-011	1.56501e-011	1.76467e-011	1.91765e-011	2.11064e-011	2.24395e-011	2.42397e-011	2.53069e-011	2.63746e-011	
FineR200	-1.38927e-010	-1.05575e-010	-8.34654e-011	-6.69492e-011	-5.33492e-011	-4.25263e-011	-3.30737e-011	-2.53808e-011	-1.87985e-011	-1.29407e-011	-8.31783e-012	-3.88805e-012	9.67959e-015	3.24953e-012	6.36712e-012	9.21808e-012	1.14078e-011	1.42641e-011	1.61888e-011	1.77177e-011	1.99145e-011	2.11769e-011	2.2778e-011	2.431e-011	2.53769e-011	2.67125e-011	
FineR210	-1.3839e-010	-1.05315e-010	-8.3108e-011	-6.66765e-011	-5.29182e-011	-4.19888e-011	-3.28071e-011	-2.51136e-011	-1.85277e-011	-1.30599e-011	-8.04903e-012	-3.61787e-012	8.27996e-014	3.51939e-012	6.90561e-012	9.29014e-012	1.18762e-011	1.43356e-011	1.65286e-011	1.84556e-011	2.02527e-011	2.17831e-011	2.32483e-011	2.45819e-011	2.61158e-011	2.69814e-011	
FineR220	-1.38114e-010	-1.0504e-010	-8.3121e-011	-6.64129e-011	-5.27329e-011	-4.1717e-011	-3.27303e-011	-2.48425e-011	-1.82598e-011	-1.27915e-011	-7.97491e-012	-3.34858e-012	3.52447e-013	4.12999e-012	6.70979e-012	1.00271e-011	1.21469e-011	1.46051e-011	1.65999e-011	1.85267e-011	2.02569e-011	2.17875e-011	2.33189e-011	2.46523e-011	2.6186e-011	2.72537e-011	
FineR230	-1.37857e-010	-1.04955e-010	-8.28588e-011	-6.60589e-011	-5.2381e-011	-4.14511e-011	-3.24587e-011	-2.44958e-011	-1.79918e-011	-1.2327e-011	-7.50961e-012	-3.07824e-012	6.22627e-013	4.20292e-012	7.44583e-012	1.02978e-011	1.29534e-011	1.48762e-011	1.66036e-011	1.87982e-011	2.03279e-011	2.23266e-011	2.38591e-011	2.53912e-011	2.64583e-011	2.7526e-011	
FineR240	-1.37321e-010	-1.04419e-010	-8.23213e-011	-6.55214e-011	-5.23888e-011	-4.1373e-011	-3.21919e-011	-2.44989e-011	-1.79163e-011	-1.22522e-011	-7.16598e-012	-2.80875e-012	1.16201e-012	4.47309e-012	7.25014e-012	1.03701e-011	1.27576e-011	1.51474e-011	1.7073e-011	1.88695e-011	2.05996e-011	2.23287e-011	2.36616e-011	2.54618e-011	2.65287e-011	2.78632e-011	
FineR250	-1.37323e-010	-1.04143e-010	-8.22273e-011	-6.55217e-011	-5.18435e-011	-4.0913e-011	-3.18437e-011	-2.4152e-011	-1.74525e-011	-1.19835e-011	-6.89682e-012	-2.73489e-012	9.6589e-013	4.94054e-012	7.78899e-012	1.05695e-011	1.30276e-011	1.54172e-011	1.73417e-011	1.96069e-011	2.08681e-011	2.2667e-011	2.41982e-011	2.54658e-011	2.67317e-011	2.81325e-011	
MinCout:	9.67959e-015	FineR:	200	FineC:	120

	FineC120	FineC121	FineC122	FineC123	FineC124	FineC125	FineC126	FineC127	FineC128	FineC129	FineC130	FineC131	FineC132	FineC133	FineC134	FineC135	FineC136	FineC137	FineC138	FineC139	FineC140	
FineR110	-4.72643e-012	-4.45746e-012	-3.99179e-012	-3.5986e-012	-3.59833e-012	-3.20497e-012	-2.9361e-012	-2.27371e-012	-1.80803e-012	-1.61118e-012	-1.14549e-012	-1.02e-012	-7.51278e-013	-5.54258e-013	-8.84224e-014	3.77271e-013	3.77271e-013	7.71903e-013	1.23759e-012	1.43508e-012	1.63226e-012	
FineR111	-4.85067e-012	-4.18879e-012	-3.99244e-012	-3.7954e-012	-3.5986e-012	-2.93635e-012	-2.47085e-012	-2.27395e-012	-1.61141e-012	-1.61118e-012	-1.41422e-012	-9.48508e-013	-4.8281e-013	-8.86307e-014	-8.86307e-014	3.77278e-013	8.42995e-013	5.74578e-013	1.23772e-012	1.50626e-012	1.90102e-012	
FineR112	-4.65472e-012	-4.18946e-012	-3.99244e-012	-3.5992e-012	-3.33027e-012	-2.86458e-012	-2.66796e-012	-2.20225e-012	-1.80835e-012	-1.80835e-012	-1.14572e-012	-6.80003e-013	-4.8293e-013	-1.72087e-014	-2.85688e-013	3.77278e-013	5.74384e-013	1.04039e-012	1.50611e-012	1.23772e-012	1.90102e-012	
FineR113	-4.85144e-012	-4.18946e-012	-3.72376e-012	-3.52733e-012	-3.06162e-012	-2.93684e-012	-2.66796e-012	-2.0055e-012	-1.53979e-012	-1.53979e-012	-8.77173e-013	-6.80003e-013	-4.8293e-013	-1.72087e-014	1.79849e-013	6.45731e-013	8.42838e-013	1.30882e-012	1.77451e-012	1.50611e-012	2.16938e-012	
FineR114	-4.5827e-012	-4.18969e-012	-3.72396e-012	-3.45508e-012	-3.06162e-012	-2.86505e-012	-2.39933e-012	-1.7369e-012	-1.80857e-012	-1.53979e-012	-8.77173e-013	-6.80176e-013	-4.11498e-013	-2.85885e-013	2.51271e-013	6.45731e-013	8.42838e-013	1.11141e-012	1.50597e-012	1.50611e-012	2.16938e-012	
FineR115	-4.31395e-012	-4.11705e-012	-3.72396e-012	-3.45508e-012	-3.3305e-012	-2.59612e-012	-2.39933e-012	-2.20244e-012	-1.7369e-012	-1.27122e-012	-8.77334e-013	-6.80176e-013	-1.42994e-013	-1.73679e-014	4.48491e-013	6.45586e-013	9.14185e-013	1.04022e-012	1.30882e-012	1.77451e-012	1.97205e-012	
FineR116	-4.31395e-012	-3.92093e-012	-3.65202e-012	-3.25881e-012	-3.25863e-012	-2.59638e-012	-2.1307e-012	-1.73706e-012	-1.46829e-012	-1.27122e-012	-1.07432e-012	-6.0863e-013	-2.14561e-013	5.41032e-014	7.16982e-013	9.85532e-013	1.11154e-012	1.11154e-012	1.57724e-012	1.97193e-012	2.24045e-012	
FineR117	-4.11788e-012	-3.84894e-012	-3.45563e-012	-3.45563e-012	-2.79341e-012	-2.32771e-012	-1.93414e-012	-1.93398e-012	-1.27144e-012	-1.07447e-012	-8.05739e-013	-4.1173e-013	-1.43041e-013	5.19803e-013	5.19803e-013	7.16982e-013	9.1429e-013	1.38001e-012	1.84567e-012	2.04318e-012	2.24045e-012	
FineR118	-4.31463e-012	-3.84894e-012	-3.45579e-012	-3.18689e-012	-2.79341e-012	-2.59655e-012	-2.32771e-012	-1.66534e-012	-1.19969e-012	-1.00282e-012	-8.77505e-013	-3.40161e-013	-1.43041e-013	2.51153e-013	5.19803e-013	1.18279e-012	1.18279e-012	1.64847e-012	1.57745e-012	2.04318e-012	2.04318e-012	
FineR119	-4.04583e-012	-3.84954e-012	-3.38383e-012	-2.99041e-012	-2.72167e-012	-2.32809e-012	-2.13119e-012	-1.86237e-012	-1.19989e-012	-1.00282e-012	-1.00282e-012	-3.40161e-013	3.22648e-013	3.22648e-013	7.88332e-013	7.16886e-013	1.18279e-012	1.64847e-012	1.84593e-012	2.04311e-012	2.31162e-012	
FineR120	-4.04597e-012	-3.65275e-012	-3.38383e-012	-2.99056e-012	-2.72167e-012	-2.05937e-012	-1.86247e-012	-1.86237e-012	-1.19989e-012	-1.00292e-012	-5.37258e-013	-7.15695e-014	-1.43088e-013	3.22648e-013	5.19719e-013	9.85602e-013	1.4513e-012	1.6487e-012	2.1144e-012	2.24068e-012	2.50921e-012	
FineR121	-4.04597e-012	-3.58073e-012	-3.11506e-012	-2.91861e-012	-2.45293e-012	-2.52482e-012	-2.05937e-012	-1.59369e-012	-9.31231e-013	-1.003e-012	-5.37258e-013	-7.15695e-014	1.25516e-013	3.22575e-013	7.88434e-013	1.25414e-012	1.4513e-012	1.6487e-012	2.1144e-012	2.31195e-012	2.77766e-012	
FineR122	-3.97387e-012	-3.31193e-012	-3.38394e-012	-2.72177e-012	-2.45293e-012	-2.05946e-012	-1.79065e-012	-1.66573e-012	-6.62576e-013	-7.34331e-013	-2.68629e-013	-7.1593e-014	3.94119e-013	3.94119e-013	1.05701e-012	1.18288e-012	1.25414e-012	1.64866e-012	2.11471e-012	2.58043e-012	2.58043e-012	
FineR123	-3.77771e-012	-3.77762e-012	-3.11553e-012	-2.91871e-012	-2.4533e-012	-1.98759e-012	-1.59394e-012	-1.59394e-012	-1.12823e-012	-4.65665e-013	-7.34331e-013	-7.1593e-014	1.25455e-013	5.9129e-013	7.88387e-013	1.05701e-012	1.72005e-012	1.72005e-012	2.11471e-012	2.38322e-012	2.77806e-012	
FineR124	-3.50877e-012	-3.50877e-012	-2.84671e-012	-2.91871e-012	-2.4533e-012	-1.98759e-012	-1.79093e-012	-1.32521e-012	-6.62677e-013	-7.34394e-013	-4.65665e-013	1.97048e-013	1.97048e-013	8.59905e-013	7.88387e-013	1.52291e-012	1.72005e-012	1.72005e-012	2.18573e-012	2.38323e-012	2.84892e-012	
FineR125	-3.7056e-012	-3.31243e-012	-2.84671e-012	-2.84671e-012	-2.18451e-012	-1.91573e-012	-1.79093e-012	-1.32521e-012	-6.62677e-013	-6.62677e-013	-1.96998e-013	0	3.9417e-013	6.62722e-013	8.59905e-013	1.52291e-012	1.52291e-012	1.72005e-012	2.18606e-012	2.38323e-012	2.77806e-012	
FineR126	-3.7056e-012	-3.04357e-012	-3.04357e-012	-2.3814e-012	-2.18454e-012	-1.98789e-012	-1.52216e-012	-1.12845e-012	-8.59665e-013	-1.97024e-013	-1.97024e-013	0	4.65737e-013	6.62822e-013	1.32579e-012	1.32579e-012	1.7915e-012	2.18606e-012	2.18606e-012	2.84935e-012	2.84935e-012	
FineR127	-3.24041e-012	-3.3125e-012	-2.84714e-012	-2.3814e-012	-2.18484e-012	-1.71909e-012	-1.52216e-012	-1.32541e-012	-8.59665e-013	-3.93973e-013	-1.97024e-013	2.68678e-013	7.3439e-013	6.62822e-013	1.32579e-012	1.52292e-012	1.7915e-012	1.9889e-012	2.45462e-012	3.11789e-012	2.84935e-012	
FineR128	-3.70564e-012	-3.24041e-012	-2.77472e-012	-2.57827e-012	-2.18484e-012	-1.71909e-012	-1.52218e-012	-1.05663e-012	-5.90924e-013	-1.25333e-013	-1.97024e-013	4.65763e-013	4.65763e-013	9.31475e-013	1.1287e-012	1.59442e-012	2.2575e-012	1.9889e-012	2.45462e-012	2.65216e-012	3.11789e-012	
FineR129	-3.70564e-012	-2.97151e-012	-2.57827e-012	-2.38142e-012	-2.11258e-012	-1.71909e-012	-1.25339e-012	-1.05663e-012	-5.90924e-013	-3.22256e-013	7.16915e-014	4.65789e-013	7.34453e-013	9.31475e-013	1.32582e-012	1.59442e-012	2.06009e-012	2.2575e-012	2.45462e-012	2.45462e-012	3.11789e-012	
FineR130	-3.16783e-012	-2.97151e-012	-2.77472e-012	-2.11258e-012	-2.11258e-012	-1.45029e-012	-1.45029e-012	-7.87852e-013	-5.90924e-013	-1.97012e-013	7.16915e-014	4.65789e-013	7.34453e-013	1.39736e-012	1.39736e-012	1.86304e-012	1.79155e-012	2.2575e-012	2.52599e-012	2.92074e-012	3.38643e-012	
MinCout:	0	FineR:	125	FineC:	131

