	CoarseC0	CoarseC10	CoarseC20	CoarseC30	CoarseC40	CoarseC50	CoarseC60	CoarseC70	CoarseC80	CoarseC90	CoarseC100	CoarseC110	CoarseC120	CoarseC130	CoarseC140	CoarseC150	CoarseC160	CoarseC170	CoarseC180	CoarseC190	CoarseC200	CoarseC210	CoarseC220	CoarseC230	CoarseC240	CoarseC250	
CoarseR0	-1.79049e-009	-1.77914e-009	-1.76298e-009	-1.74315e-009	-1.7192e-009	-1.69265e-009	-1.66343e-009	-1.63079e-009	-1.59636e-009	-1.55913e-009	-1.51924e-009	-1.46969e-009	-1.41781e-009	-1.3693e-009	-1.32461e-009	-1.2829e-009	-1.24342e-009	-1.20747e-009	-1.17301e-009	-1.14063e-009	-1.10987e-009	-1.081e-009	-1.05381e-009	-1.02863e-009	-1.00424e-009	-9.81708e-010	
CoarseR10	-1.37295e-009	-1.35702e-009	-1.33855e-009	-1.31632e-009	-1.29224e-009	-1.26475e-009	-1.23514e-009	-1.20322e-009	-1.16855e-009	-1.13037e-009	-1.08245e-009	-1.03286e-009	-9.86852e-010	-9.43333e-010	-9.0345e-010	-8.66425e-010	-8.31606e-010	-7.98327e-010	-7.6734e-010	-7.38069e-010	-7.10677e-010	-6.84721e-010	-6.60659e-010	-6.37999e-010	-6.16468e-010	-5.96153e-010	
CoarseR20	-1.12107e-009	-1.10377e-009	-1.08412e-009	-1.06135e-009	-1.03553e-009	-1.00776e-009	-9.77679e-010	-9.44032e-010	-9.08153e-010	-8.6172e-010	-8.12848e-010	-7.67594e-010	-7.25346e-010	-6.85622e-010	-6.49275e-010	-6.14958e-010	-5.82359e-010	-5.5173e-010	-5.22682e-010	-4.96142e-010	-4.70786e-010	-4.4714e-010	-4.24993e-010	-4.04571e-010	-3.84408e-010	-3.6662e-010	
CoarseR30	-9.53037e-010	-9.33514e-010	-9.12346e-010	-8.8839e-010	-8.62042e-010	-8.32888e-010	-8.01229e-010	-7.66884e-010	-7.23591e-010	-6.74534e-010	-6.28947e-010	-5.86626e-010	-5.47264e-010	-5.09874e-010	-4.75502e-010	-4.42795e-010	-4.11868e-010	-3.83271e-010	-3.56676e-010	-3.31583e-010	-3.08415e-010	-2.86075e-010	-2.65675e-010	-2.46898e-010	-2.28124e-010	-2.11148e-010	
CoarseR40	-8.32124e-010	-8.11799e-010	-7.89445e-010	-7.64236e-010	-7.36452e-010	-7.05994e-010	-6.72827e-010	-6.35151e-010	-5.84713e-010	-5.37958e-010	-4.95431e-010	-4.54786e-010	-4.17605e-010	-3.82161e-010	-3.48928e-010	-3.17348e-010	-2.88142e-010	-2.61373e-010	-2.36227e-010	-2.12657e-010	-1.90774e-010	-1.69844e-010	-1.50829e-010	-1.32728e-010	-1.15676e-010	-9.9428e-011	
CoarseR50	-7.42037e-010	-7.20168e-010	-6.96398e-010	-6.69981e-010	-6.40784e-010	-6.09351e-010	-5.73981e-010	-5.27414e-010	-4.78638e-010	-4.33817e-010	-3.92861e-010	-3.54354e-010	-3.1833e-010	-2.83127e-010	-2.51227e-010	-2.21453e-010	-1.93871e-010	-1.68224e-010	-1.44257e-010	-1.22097e-010	-1.01295e-010	-8.14623e-011	-6.31987e-011	-4.62234e-011	-2.98919e-011	-1.46074e-011	
CoarseR60	-6.70332e-010	-6.46682e-010	-6.22194e-010	-5.94003e-010	-5.63703e-010	-5.30475e-010	-4.90626e-010	-4.4033e-010	-3.93634e-010	-3.50471e-010	-3.10573e-010	-2.73336e-010	-2.37156e-010	-2.03593e-010	-1.73398e-010	-1.4456e-010	-1.18198e-010	-9.34282e-011	-7.09051e-011	-4.91851e-011	-2.94557e-011	-1.05853e-011	6.77445e-012	2.26055e-011	3.80644e-011	5.29194e-011	
CoarseR70	-6.12545e-010	-5.87771e-010	-5.61863e-010	-5.32701e-010	-5.00668e-010	-4.6546e-010	-4.183e-010	-3.69057e-010	-3.24089e-010	-2.81802e-010	-2.43239e-010	-2.06142e-010	-1.71124e-010	-1.38832e-010	-1.08967e-010	-8.19552e-011	-5.62802e-011	-3.26467e-011	-1.09694e-011	9.88374e-012	2.86898e-011	4.67559e-011	6.34603e-011	7.8879e-011	9.389e-011	1.07624e-010	
CoarseR80	-5.64702e-010	-5.38396e-010	-5.10944e-010	-4.80781e-010	-4.47694e-010	-4.09307e-010	-3.5756e-010	-3.09428e-010	-2.6523e-010	-2.24326e-010	-1.8608e-010	-1.49263e-010	-1.15381e-010	-8.40025e-011	-5.52491e-011	-2.88115e-011	-4.49123e-012	1.83794e-011	3.96011e-011	5.93601e-011	7.78312e-011	9.49789e-011	1.11031e-010	1.2605e-010	1.40138e-010	1.53253e-010	
CoarseR90	-5.23077e-010	-4.96569e-010	-4.67713e-010	-4.36581e-010	-4.01379e-010	-3.56323e-010	-3.05303e-010	-2.58252e-010	-2.15089e-010	-1.74957e-010	-1.3653e-010	-1.00542e-010	-6.75616e-011	-3.7258e-011	-9.58576e-012	1.62251e-011	3.97868e-011	6.243e-011	8.28725e-011	1.01991e-010	1.19554e-010	1.36301e-010	1.51975e-010	1.66067e-010	1.7979e-010	1.92446e-010	
CoarseR100	-4.88316e-010	-4.60072e-010	-4.30667e-010	-3.98076e-010	-3.6095e-010	-3.10675e-010	-2.60465e-010	-2.14868e-010	-1.71911e-010	-1.31516e-010	-9.36656e-011	-5.90298e-011	-2.68513e-011	2.9172e-012	3.01677e-011	5.48947e-011	7.80322e-011	9.99059e-011	1.19715e-010	1.3845e-010	1.55634e-010	1.71937e-010	1.86493e-010	2.00438e-010	2.13701e-010	2.25666e-010	
CoarseR110	-4.58375e-010	-4.285e-010	-3.97665e-010	-3.63961e-010	-3.23644e-010	-2.7019e-010	-2.20999e-010	-1.75443e-010	-1.33544e-010	-9.27971e-011	-5.59985e-011	-2.15098e-011	9.41553e-012	3.90433e-011	6.52759e-011	8.95852e-011	1.12157e-010	1.33344e-010	1.5298e-010	1.70854e-010	1.87626e-010	2.02826e-010	2.17641e-010	2.30895e-010	2.43484e-010	2.55018e-010	
CoarseR120	-4.31107e-010	-4.00061e-010	-3.68253e-010	-3.32998e-010	-2.87344e-010	-2.34129e-010	-1.85732e-010	-1.40999e-010	-9.85198e-011	-5.83257e-011	-2.2144e-011	1.15578e-011	4.17948e-011	7.06086e-011	9.65104e-011	1.20446e-010	1.42651e-010	1.6297e-010	1.82229e-010	1.99424e-010	2.16012e-010	2.31211e-010	2.44884e-010	2.58188e-010	2.70081e-010	2.8113e-010	
CoarseR130	-4.06526e-010	-3.74724e-010	-3.41297e-010	-3.04847e-010	-2.54022e-010	-2.02164e-010	-1.53915e-010	-1.09467e-010	-6.65043e-011	-2.73973e-011	8.1913e-012	4.15039e-011	7.14851e-011	9.94943e-011	1.25163e-010	1.48058e-010	1.70026e-010	1.90006e-010	2.0859e-010	2.25854e-010	2.41747e-010	2.56535e-010	2.69767e-010	2.82067e-010	2.93993e-010	3.04547e-010	
CoarseR140	-3.84622e-010	-3.51668e-010	-3.17874e-010	-2.79024e-010	-2.24855e-010	-1.72943e-010	-1.25033e-010	-8.0941e-011	-3.79051e-011	5.49039e-013	3.55252e-011	6.80109e-011	9.78587e-011	1.25162e-010	1.50323e-010	1.7326e-010	1.94675e-010	2.14216e-010	2.32328e-010	2.48958e-010	2.64654e-010	2.78967e-010	2.91954e-010	3.03819e-010	3.15236e-010	3.25273e-010	
CoarseR150	-3.64387e-010	-3.3063e-010	-2.95538e-010	-2.53576e-010	-1.97756e-010	-1.46377e-010	-9.90304e-011	-5.37225e-011	-1.19261e-011	2.62626e-011	6.06411e-011	9.25821e-011	1.21817e-010	1.49111e-010	1.73539e-010	1.96349e-010	2.17246e-010	2.36641e-010	2.54117e-010	2.70725e-010	2.85472e-010	2.99582e-010	3.12346e-010	3.2394e-010	3.34837e-010	3.44336e-010	
CoarseR160	-3.4689e-010	-3.11648e-010	-2.75329e-010	-2.29248e-010	-1.7361e-010	-1.22622e-010	-7.55768e-011	-2.99754e-011	1.15007e-011	4.89918e-011	8.3122e-011	1.14638e-010	1.43573e-010	1.70132e-010	1.94486e-010	2.16814e-010	2.37342e-010	2.56544e-010	2.74098e-010	2.90005e-010	3.04484e-010	3.18145e-010	3.30389e-010	3.4144e-010	3.52047e-010	3.61034e-010	
CoarseR170	-3.30002e-010	-2.93752e-010	-2.56226e-010	-2.06132e-010	-1.50804e-010	-1.00288e-010	-5.33197e-011	-7.40547e-012	3.33656e-011	7.04646e-011	1.04432e-010	1.35591e-010	1.64043e-010	1.9059e-010	2.14448e-010	2.36367e-010	2.56475e-010	2.75197e-010	2.92537e-010	3.0792e-010	3.22441e-010	3.35789e-010	3.47746e-010	3.58598e-010	3.68164e-010	3.77091e-010	
CoarseR180	-3.1419e-010	-2.77252e-010	-2.38777e-010	-1.84925e-010	-1.29941e-010	-7.95003e-011	-3.18948e-011	1.28419e-011	5.37278e-011	9.04787e-011	1.23607e-010	1.54604e-010	1.82875e-010	2.08707e-010	2.32162e-010	2.54018e-010	2.73909e-010	2.92357e-010	3.09478e-010	3.24903e-010	3.38928e-010	3.51504e-010	3.62901e-010	3.73692e-010	3.82958e-010	3.91325e-010	
CoarseR190	-2.99921e-010	-2.62035e-010	-2.22052e-010	-1.65318e-010	-1.10435e-010	-6.05138e-011	-1.25772e-011	3.22731e-011	7.21521e-011	1.09057e-010	1.42213e-010	1.72618e-010	2.00491e-010	2.26128e-010	2.49421e-010	2.70966e-010	2.90422e-010	3.08416e-010	3.25239e-010	3.40455e-010	3.5393e-010	3.66475e-010	3.77377e-010	3.8759e-010	3.97034e-010	4.04805e-010	
CoarseR200	-2.86209e-010	-2.4739e-010	-2.06581e-010	-1.47144e-010	-9.26631e-011	-4.24557e-011	5.34784e-012	5.00894e-011	8.99548e-011	1.26342e-010	1.58912e-010	1.8859e-010	2.16391e-010	2.42084e-010	2.65166e-010	2.8653e-010	3.05788e-010	3.23543e-010	3.39595e-010	3.54788e-010	3.68259e-010	3.80796e-010	3.91362e-010	4.01041e-010	4.09876e-010	4.17287e-010	
CoarseR210	-2.73748e-010	-2.33783e-010	-1.90316e-010	-1.30358e-010	-7.61782e-011	-2.58416e-011	2.26504e-011	6.66696e-011	1.05717e-010	1.42074e-010	1.7486e-010	2.04867e-010	2.31919e-010	2.57183e-010	2.79974e-010	3.0092e-010	3.20169e-010	3.37706e-010	3.53829e-010	3.68699e-010	3.81332e-010	3.93624e-010	4.04139e-010	4.13142e-010	4.21676e-010	4.28538e-010	
CoarseR220	-2.62074e-010	-2.21231e-010	-1.74492e-010	-1.14518e-010	-6.04811e-011	-9.71425e-012	3.84217e-011	8.22496e-011	1.2134e-010	1.56952e-010	1.89261e-010	2.19122e-010	2.46218e-010	2.71522e-010	2.93973e-010	3.14641e-010	3.3383e-010	3.50887e-010	3.66669e-010	3.81128e-010	3.93985e-010	4.0558e-010	4.16063e-010	4.24764e-010	4.32689e-010	4.39144e-010	
CoarseR230	-2.50728e-010	-2.09096e-010	-1.59254e-010	-9.97615e-011	-4.58113e-011	5.33931e-012	5.32622e-011	9.67123e-011	1.35316e-010	1.70883e-010	2.03321e-010	2.32687e-010	2.59955e-010	2.84537e-010	3.06888e-010	3.27608e-010	3.46383e-010	3.63587e-010	3.78869e-010	3.92982e-010	4.05796e-010	4.16609e-010	4.27051e-010	4.35961e-010	4.43171e-010	4.48967e-010	
CoarseR240	-2.40111e-010	-1.97841e-010	-1.45509e-010	-8.59701e-011	-3.18101e-011	1.93264e-011	6.74114e-011	1.10361e-010	1.49328e-010	1.83995e-010	2.1642e-010	2.45412e-010	2.72435e-010	2.97039e-010	3.193e-010	3.39495e-010	3.58187e-010	3.75219e-010	3.90368e-010	4.04209e-010	4.17009e-010	4.27756e-010	4.37221e-010	4.4608e-010	4.52693e-010	4.58344e-010	
CoarseR250	-2.29815e-010	-1.86752e-010	-1.32275e-010	-7.26419e-011	-1.89181e-011	3.2945e-011	8.02678e-011	1.23184e-010	1.62282e-010	1.96988e-010	2.28764e-010	2.57508e-010	2.8456e-010	3.0904e-010	3.31179e-010	3.51144e-010	3.69564e-010	3.86342e-010	4.01807e-010	4.15244e-010	4.27161e-010	4.3788e-010	4.4729e-010	4.5515e-010	4.61421e-010	4.66758e-010	
MinCout:	5.49039e-013	CoarseR:	140	CoarseC:	90

	CoarseC130	CoarseC131	CoarseC132	CoarseC133	CoarseC134	CoarseC135	CoarseC136	CoarseC137	CoarseC138	CoarseC139	CoarseC140	CoarseC141	CoarseC142	CoarseC143	CoarseC144	CoarseC145	CoarseC146	CoarseC147	CoarseC148	CoarseC149	CoarseC150	
CoarseR80	-8.39316e-011	-8.13244e-011	-7.85427e-011	-7.54886e-011	-7.26204e-011	-6.95642e-011	-6.67764e-011	-6.37172e-011	-6.11154e-011	-5.85803e-011	-5.55171e-011	-5.28328e-011	-5.01034e-011	-4.73047e-011	-4.48866e-011	-4.18173e-011	-3.94755e-011	-3.66597e-011	-3.38539e-011	-3.14317e-011	-2.9074e-011	
CoarseR81	-7.92448e-011	-7.63778e-011	-7.35126e-011	-7.09148e-011	-6.76712e-011	-6.48013e-011	-6.15534e-011	-5.91408e-011	-5.66069e-011	-5.35439e-011	-5.06704e-011	-4.78738e-011	-4.50647e-011	-4.24569e-011	-3.98461e-011	-3.72365e-011	-3.46895e-011	-3.20778e-011	-2.92709e-011	-2.69098e-011	-2.42951e-011	
CoarseR82	-7.39258e-011	-7.11425e-011	-6.84631e-011	-6.54071e-011	-6.2879e-011	-5.98188e-011	-5.67587e-011	-5.4156e-011	-5.12831e-011	-4.87467e-011	-4.58722e-011	-4.30742e-011	-4.02744e-011	-3.73976e-011	-3.50438e-011	-3.2433e-011	-2.96275e-011	-2.72723e-011	-2.44638e-011	-2.18452e-011	-1.94865e-011	
CoarseR83	-6.91661e-011	-6.63007e-011	-6.37018e-011	-6.09145e-011	-5.78559e-011	-5.5056e-011	-5.17345e-011	-4.93901e-011	-4.65165e-011	-4.372e-011	-4.06537e-011	-3.83048e-011	-3.5236e-011	-3.28172e-011	-3.00135e-011	-2.76602e-011	-2.48534e-011	-2.24313e-011	-1.98797e-011	-1.7264e-011	-1.47092e-011	
CoarseR84	-6.43058e-011	-6.17818e-011	-5.87247e-011	-5.63136e-011	-5.28046e-011	-5.0003e-011	-4.71311e-011	-4.45261e-011	-4.199e-011	-3.91148e-011	-3.63154e-011	-3.37063e-011	-3.06289e-011	-2.80921e-011	-2.56716e-011	-2.31239e-011	-2.05097e-011	-1.76998e-011	-1.52685e-011	-1.24559e-011	-1.01038e-011	
CoarseR85	-5.9834e-011	-5.69642e-011	-5.40964e-011	-5.17564e-011	-4.85052e-011	-4.54431e-011	-4.23796e-011	-3.99644e-011	-3.71665e-011	-3.42906e-011	-3.17506e-011	-2.91396e-011	-2.58765e-011	-2.35243e-011	-2.1103e-011	-1.82946e-011	-1.59392e-011	-1.35157e-011	-1.07032e-011	-7.88895e-012	-5.5291e-012	
CoarseR86	-5.52448e-011	-5.23743e-011	-4.95842e-011	-4.69809e-011	-4.39191e-011	-4.08559e-011	-3.80593e-011	-3.54458e-011	-3.28375e-011	-3.00366e-011	-2.74205e-011	-2.48087e-011	-2.15441e-011	-1.91231e-011	-1.65091e-011	-1.39603e-011	-1.13417e-011	-8.72446e-012	-6.1705e-012	-3.74443e-012	-1.18727e-012	
CoarseR87	-5.06996e-011	-4.78337e-011	-4.52334e-011	-4.24329e-011	-3.93701e-011	-3.65688e-011	-3.36936e-011	-3.08945e-011	-2.85531e-011	-2.56753e-011	-2.26045e-011	-2.02542e-011	-1.74474e-011	-1.48316e-011	-1.22161e-011	-9.86111e-012	-6.78261e-012	-4.16439e-012	-2.26507e-012	8.16947e-013	3.10986e-012	
CoarseR88	-4.58721e-011	-4.32644e-011	-4.02073e-011	-3.78659e-011	-3.48017e-011	-3.19265e-011	-2.91275e-011	-2.63227e-011	-2.39046e-011	-2.12933e-011	-1.82217e-011	-1.54151e-011	-1.28692e-011	-1.02534e-011	-7.83015e-012	-5.27959e-012	-2.46506e-012	-3.90294e-014	2.31981e-012	5.13849e-012	7.56683e-012	
CoarseR89	-4.18078e-011	-3.86664e-011	-3.61404e-011	-3.35305e-011	-3.04652e-011	-2.7666e-011	-2.47888e-011	-2.19866e-011	-1.93719e-011	-1.69524e-011	-1.4146e-011	-1.13378e-011	-8.7193e-012	-5.90808e-012	-3.29037e-012	-7.38886e-013	1.68693e-012	4.30743e-012	6.93151e-012	9.48938e-012	1.21131e-011	
CoarseR90	-3.71841e-011	-3.43873e-011	-3.17805e-011	-2.91729e-011	-2.61064e-011	-2.34946e-011	-2.04257e-011	-1.76221e-011	-1.50093e-011	-1.2396e-011	-9.39211e-012	-7.23571e-012	-3.69865e-012	-1.80401e-012	8.16402e-013	3.63087e-012	6.05744e-012	8.68152e-012	1.10413e-011	1.3863e-011	1.59609e-011	
CoarseR91	-3.29492e-011	-3.03406e-011	-2.79255e-011	-2.48591e-011	-2.20586e-011	-1.91805e-011	-1.61823e-011	-1.37627e-011	-1.0956e-011	-8.34084e-012	-5.52996e-012	-2.91279e-012	-9.9874e-014	2.32494e-012	4.87645e-012	7.49777e-012	1.01219e-011	1.24812e-011	1.51054e-011	1.77333e-011	2.00307e-011	
CoarseR92	-2.89979e-011	-2.62006e-011	-2.33241e-011	-2.05237e-011	-1.77211e-011	-1.4842e-011	-1.2303e-011	-9.15604e-012	-7.26724e-012	-4.19157e-012	-1.18579e-012	9.72726e-013	4.05268e-012	6.67314e-012	9.2944e-012	1.18483e-011	1.42765e-011	1.6374e-011	1.89996e-011	2.18246e-011	2.41881e-011	
CoarseR93	-2.47121e-011	-2.19133e-011	-1.94966e-011	-1.66952e-011	-1.38914e-011	-1.10112e-011	-8.13062e-012	-5.32268e-012	-2.70644e-012	-1.61802e-013	2.72224e-012	5.34153e-012	8.08653e-012	1.05132e-011	1.31358e-011	1.54951e-011	1.81197e-011	2.09432e-011	2.33048e-011	2.57363e-011	2.83005e-011	
CoarseR94	-2.03314e-011	-1.77213e-011	-1.51135e-011	-1.25027e-011	-9.69789e-012	-6.43038e-012	-3.81471e-012	-1.46706e-012	1.41654e-012	4.0344e-012	6.84929e-012	9.2031e-012	1.22855e-011	1.47126e-011	1.7002e-011	2.00887e-011	2.24508e-011	2.46157e-011	2.74425e-011	2.9806e-011	3.22395e-011	
CoarseR95	-1.67298e-011	-1.41184e-011	-1.1315e-011	-8.43468e-012	-5.36184e-012	-2.74629e-012	6.0816e-014	2.67853e-012	5.29602e-012	7.91579e-012	1.07289e-011	1.30859e-011	1.61697e-011	1.87937e-011	2.11525e-011	2.37786e-011	2.61417e-011	2.8505e-011	3.08678e-011	3.36975e-011	3.63289e-011	
CoarseR96	-1.23716e-011	-1.0033e-011	-7.41936e-012	-4.3466e-012	-1.73092e-012	1.34448e-012	3.88665e-012	6.50588e-012	9.19561e-012	1.17461e-011	1.45603e-011	1.71837e-011	2.02689e-011	2.26978e-011	2.47921e-011	2.76173e-011	3.02458e-011	3.26097e-011	3.52403e-011	3.73416e-011	3.99771e-011	
CoarseR97	-8.72655e-012	-5.92188e-012	-3.23568e-012	-6.20204e-013	2.6475e-012	4.99562e-012	7.80848e-012	1.06942e-011	1.30459e-011	1.59363e-011	1.84868e-011	2.11109e-011	2.41254e-011	2.65554e-011	2.89192e-011	3.1549e-011	3.39106e-011	3.65413e-011	3.89072e-011	4.12772e-011	4.3911e-011	
CoarseR98	-4.59757e-012	-1.71607e-012	6.30143e-013	3.51343e-012	6.12637e-012	9.13474e-012	1.19492e-011	1.46398e-011	1.6992e-011	1.98109e-011	2.24355e-011	2.49881e-011	2.78122e-011	3.07044e-011	3.26032e-011	3.54318e-011	3.78655e-011	4.06971e-011	4.27989e-011	4.52352e-011	4.78031e-011	
CoarseR99	-7.14283e-013	2.09371e-012	4.51544e-012	7.39956e-012	9.9405e-012	1.28265e-011	1.59072e-011	1.82588e-011	2.0813e-011	2.32412e-011	2.63277e-011	2.86844e-011	3.17072e-011	3.41391e-011	3.63017e-011	3.91305e-011	4.12312e-011	4.40646e-011	4.66994e-011	4.88675e-011	5.14429e-011	
CoarseR100	2.9172e-012	5.72667e-012	8.14256e-012	1.09552e-011	1.37698e-011	1.6854e-011	1.92803e-011	2.18278e-011	2.44533e-011	2.70785e-011	2.99702e-011	3.25247e-011	3.53522e-011	3.77197e-011	4.00891e-011	4.27236e-011	4.50247e-011	4.76628e-011	5.03003e-011	5.24062e-011	5.52475e-011	
MinCout:	-3.90294e-014	CoarseR:	88	CoarseC:	147

	FineC0	FineC10	FineC20	FineC30	FineC40	FineC50	FineC60	FineC70	FineC80	FineC90	FineC100	FineC110	FineC120	FineC130	FineC140	FineC150	FineC160	FineC170	FineC180	FineC190	FineC200	FineC210	FineC220	FineC230	FineC240	FineC250	
FineR0	-2.15924e-010	-1.83306e-010	-1.60829e-010	-1.43694e-010	-1.29754e-010	-1.18434e-010	-1.09294e-010	-1.01255e-010	-9.44915e-011	-8.86518e-011	-8.345e-011	-7.91446e-011	-7.5241e-011	-7.17786e-011	-6.85035e-011	-6.55077e-011	-6.28922e-011	-6.07344e-011	-5.8573e-011	-5.66053e-011	-5.46343e-011	-5.31985e-011	-5.14192e-011	-4.99178e-011	-4.85964e-011	-4.74833e-011	
FineR10	-1.8385e-010	-1.51474e-010	-1.29561e-010	-1.12343e-010	-9.83775e-011	-8.73172e-011	-7.81788e-011	-7.05052e-011	-6.38191e-011	-5.81569e-011	-5.3206e-011	-4.86398e-011	-4.49873e-011	-4.12629e-011	-3.84469e-011	-3.56365e-011	-3.30173e-011	-3.03953e-011	-2.82325e-011	-2.62614e-011	-2.4751e-011	-2.32399e-011	-2.15321e-011	-2.02128e-011	-1.85104e-011	-1.76526e-011	
FineR20	-1.69873e-010	-1.3726e-010	-1.15342e-010	-9.83901e-011	-8.47975e-011	-7.37341e-011	-6.45864e-011	-5.69902e-011	-5.04894e-011	-4.48252e-011	-3.98757e-011	-3.53078e-011	-3.13919e-011	-2.81195e-011	-2.46565e-011	-2.21049e-011	-1.96775e-011	-1.73215e-011	-1.51559e-011	-1.29901e-011	-1.14791e-011	-9.96743e-012	-8.19192e-012	-6.67871e-012	-5.62472e-012	-4.30475e-012	
FineR30	-1.61839e-010	-1.28956e-010	-1.0731e-010	-9.0538e-011	-7.67544e-011	-6.56885e-011	-5.65442e-011	-4.92103e-011	-4.24438e-011	-3.70413e-011	-3.18274e-011	-2.745e-011	-2.35327e-011	-2.03303e-011	-1.70589e-011	-1.4245e-011	-1.18848e-011	-9.5272e-012	-7.29443e-012	-5.32265e-012	-3.6172e-012	-2.10318e-012	-5.90583e-013	9.22715e-013	1.9767e-012	3.55774e-012	
FineR40	-1.56146e-010	-1.23995e-010	-1.0216e-010	-8.52984e-011	-7.16035e-011	-6.06404e-011	-5.18401e-011	-4.39726e-011	-3.76625e-011	-3.16135e-011	-2.7121e-011	-2.24805e-011	-1.86319e-011	-1.51659e-011	-1.18933e-011	-9.27018e-012	-6.6474e-012	-4.48381e-012	-2.58152e-012	-6.11491e-013	1.35873e-012	3.0677e-012	4.38529e-012	5.89857e-012	7.21475e-012	8.26928e-012	
FineR50	-1.5285e-010	-1.20343e-010	-9.8326e-011	-8.13693e-011	-6.80336e-011	-5.74275e-011	-4.82824e-011	-4.06811e-011	-3.37244e-011	-2.83194e-011	-2.35648e-011	-1.89953e-011	-1.50735e-011	-1.18739e-011	-8.79541e-012	-5.98049e-012	-3.62202e-012	-9.9712e-013	9.02979e-013	2.87501e-012	4.64913e-012	6.35825e-012	7.8709e-012	9.18886e-012	1.0701e-011	1.20201e-011	
FineR60	-1.49587e-010	-1.17247e-010	-9.57715e-011	-7.87297e-011	-6.5214e-011	-5.43358e-011	-4.53756e-011	-3.80429e-011	-3.10854e-011	-2.56803e-011	-2.04652e-011	-1.63554e-011	-1.22396e-011	-9.23364e-012	-5.96058e-012	-3.14344e-012	-7.15677e-013	1.44801e-012	3.80972e-012	5.31977e-012	7.48788e-012	8.99967e-012	1.058e-011	1.20267e-011	1.30807e-011	1.43998e-011	
FineR70	-1.47806e-010	-1.1519e-010	-9.34467e-011	-7.71266e-011	-6.31596e-011	-5.236e-011	-4.313e-011	-3.60652e-011	-2.94887e-011	-2.38197e-011	-1.86783e-011	-1.45672e-011	-1.06455e-011	-7.18147e-012	-3.90696e-012	-1.09122e-012	1.33654e-012	3.69653e-012	5.59826e-012	7.63715e-012	9.54046e-012	1.10545e-011	1.23692e-011	1.38161e-011	1.51345e-011	1.62536e-011	
FineR80	-1.46082e-010	-1.13929e-010	-9.21848e-011	-7.52237e-011	-6.18972e-011	-5.10131e-011	-4.18671e-011	-3.45343e-011	-2.77654e-011	-2.23635e-011	-1.69547e-011	-1.30371e-011	-9.11579e-012	-5.45743e-012	-2.64308e-012	6.32944e-013	3.06074e-012	5.22463e-012	7.32256e-012	9.09679e-012	1.12651e-011	1.27792e-011	1.40274e-011	1.56089e-011	1.69271e-011	1.79784e-011	
FineR90	-1.44625e-010	-1.12284e-010	-9.0538e-011	-7.37557e-011	-6.04303e-011	-4.93619e-011	-4.09373e-011	-3.28812e-011	-2.63787e-011	-2.07088e-011	-1.59512e-011	-1.15739e-011	-7.72543e-012	-4.25957e-012	-9.85987e-013	1.83071e-012	3.99327e-012	6.42237e-012	8.32286e-012	1.04899e-011	1.22674e-011	1.37791e-011	1.54892e-011	1.66082e-011	1.80564e-011	1.94399e-011	
FineR100	-1.43674e-010	-1.11066e-010	-8.98657e-011	-7.26344e-011	-5.97591e-011	-4.84219e-011	-3.9731e-011	-3.16762e-011	-2.54411e-011	-1.97719e-011	-1.50148e-011	-1.07115e-011	-6.52394e-012	-3.05923e-012	-5.11146e-014	2.57002e-012	5.38824e-012	7.55243e-012	9.7181e-012	1.16899e-011	1.32006e-011	1.491e-011	1.64225e-011	1.77396e-011	1.92534e-011	2.03077e-011	
FineR110	-1.4281e-010	-1.10202e-010	-8.85519e-011	-7.19597e-011	-5.86261e-011	-4.75585e-011	-3.86037e-011	-3.07368e-011	-2.45023e-011	-1.89076e-011	-1.38836e-011	-9.58052e-012	-5.65908e-012	-1.92852e-012	8.14345e-013	3.89608e-012	6.25389e-012	8.41815e-012	1.05839e-011	1.25557e-011	1.42641e-011	1.60403e-011	1.75527e-011	1.86057e-011	1.99235e-011	2.12418e-011	
FineR120	-1.41945e-010	-1.09608e-010	-8.78641e-011	-7.12749e-011	-5.75763e-011	-4.6961e-011	-3.75452e-011	-3.02133e-011	-2.36357e-011	-1.80415e-011	-1.28254e-011	-8.44798e-012	-4.7927e-012	-1.13306e-012	1.68092e-012	4.30204e-012	7.12052e-012	9.28485e-012	1.14507e-011	1.34225e-011	1.49333e-011	1.64447e-011	1.79569e-011	1.94727e-011	2.07905e-011	2.18417e-011	
FineR130	-1.41165e-010	-1.08553e-010	-8.69964e-011	-6.99468e-011	-5.68921e-011	-4.60936e-011	-3.68649e-011	-2.95339e-011	-2.28428e-011	-1.76316e-011	-1.22226e-011	-7.91879e-012	-4.19053e-012	-7.2566e-013	2.28266e-012	5.16875e-012	7.52688e-012	1.01524e-011	1.20533e-011	1.37587e-011	1.57318e-011	1.77062e-011	1.88245e-011	2.00732e-011	2.13256e-011	2.27093e-011	
FineR140	-1.40552e-010	-1.0813e-010	-8.66582e-011	-6.96991e-011	-5.63647e-011	-4.52188e-011	-3.63404e-011	-2.87409e-011	-2.25056e-011	-1.6837e-011	-1.1813e-011	-7.50977e-012	-3.78207e-012	3.36866e-013	2.88488e-012	5.96634e-012	8.32467e-012	1.0489e-011	1.24579e-011	1.4362e-011	1.6333e-011	1.81092e-011	1.9624e-011	2.08729e-011	2.24551e-011	2.32453e-011	
FineR150	-1.39936e-010	-1.07604e-010	-8.6131e-011	-6.90899e-011	-5.57568e-011	-4.48809e-011	-3.59221e-011	-2.81359e-011	-2.16339e-011	-1.60395e-011	-1.1282e-011	-6.7124e-012	-3.057e-012	6.74044e-013	3.48737e-012	6.30342e-012	9.12203e-012	1.10212e-011	1.32568e-011	1.51591e-011	1.69347e-011	1.86443e-011	2.01567e-011	2.12097e-011	2.2792e-011	2.36469e-011	
FineR160	-1.39596e-010	-1.0699e-010	-8.55199e-011	-6.85615e-011	-5.51487e-011	-4.43513e-011	-3.54727e-011	-2.78729e-011	-2.13702e-011	-1.57017e-011	-1.0678e-011	-6.37482e-012	-2.64738e-012	1.01157e-012	3.82478e-012	6.6408e-012	9.19401e-012	1.16233e-011	1.37891e-011	1.52988e-011	1.74671e-011	1.91773e-011	2.04939e-011	2.16122e-011	2.30606e-011	2.46435e-011	
FineR170	-1.38794e-010	-1.06736e-010	-8.4992e-011	-6.81324e-011	-5.48884e-011	-4.38209e-011	-3.48613e-011	-2.70745e-011	-2.10321e-011	-1.51704e-011	-1.01463e-011	-5.84293e-012	-1.92157e-012	1.34905e-012	4.62254e-012	7.173e-012	9.79554e-012	1.21562e-011	1.43221e-011	1.60964e-011	1.78046e-011	1.9316e-011	2.08282e-011	2.18809e-011	2.38582e-011	2.47131e-011	
FineR180	-1.38542e-010	-1.05934e-010	-8.44626e-011	-6.76026e-011	-5.43581e-011	-4.35593e-011	-3.45987e-011	-2.65433e-011	-2.04978e-011	-1.48299e-011	-1.00733e-011	-5.50428e-012	-1.5833e-012	1.61564e-012	4.62372e-012	7.70539e-012	1.0328e-011	1.24921e-011	1.46577e-011	1.63646e-011	1.81396e-011	1.98489e-011	2.13611e-011	2.2678e-011	2.41922e-011	2.505e-011	
FineR190	-1.38455e-010	-1.05851e-010	-8.43814e-011	-6.76133e-011	-5.4011e-011	-4.29451e-011	-3.43357e-011	-2.64684e-011	-2.01592e-011	-1.45651e-011	-9.34922e-012	-5.2383e-012	-1.05108e-012	2.14801e-012	4.96107e-012	7.77713e-012	1.05958e-011	1.27595e-011	1.44651e-011	1.68976e-011	1.86061e-011	2.01177e-011	2.16327e-011	2.31467e-011	2.42004e-011	2.5719e-011	
FineR200	-1.37887e-010	-1.05264e-010	-8.39698e-011	-6.70021e-011	-5.37469e-011	-4.27786e-011	-3.3895e-011	-2.63699e-011	-1.95944e-011	-1.41885e-011	-9.23478e-012	-4.85367e-012	-1.19527e-012	2.53907e-012	5.54985e-012	8.17305e-012	1.07284e-011	1.31604e-011	1.53274e-011	1.72318e-011	1.85481e-011	2.03254e-011	2.18394e-011	2.33535e-011	2.4672e-011	2.57276e-011	
FineR210	-1.37467e-010	-1.05295e-010	-8.36168e-011	-6.67417e-011	-5.32159e-011	-4.27851e-011	-3.3708e-011	-2.62948e-011	-1.95199e-011	-1.39212e-011	-9.0872e-012	-4.58673e-012	-5.90426e-013	2.80575e-012	5.88759e-012	8.44032e-012	1.10652e-011	1.34962e-011	1.53987e-011	1.75677e-011	1.90795e-011	2.1055e-011	2.2108e-011	2.36222e-011	2.52058e-011	2.62607e-011	
FineR220	-1.37106e-010	-1.04851e-010	-8.3453e-011	-6.64819e-011	-5.31378e-011	-4.22533e-011	-3.31762e-011	-2.54949e-011	-1.92552e-011	-1.35822e-011	-8.36074e-012	-4.0539e-012	-3.95505e-013	3.1436e-012	6.15426e-012	8.70685e-012	1.11364e-011	1.36945e-011	1.59316e-011	1.76381e-011	1.93479e-011	2.08606e-011	2.2374e-011	2.39571e-011	2.50112e-011	2.65266e-011	
FineR230	-1.37108e-010	-1.04666e-010	-8.31817e-011	-6.63926e-011	-5.30595e-011	-4.19847e-011	-3.30191e-011	-2.52269e-011	-1.91777e-011	-1.35064e-011	-8.55422e-012	-4.17457e-012	-2.50917e-013	3.21576e-012	6.22507e-012	9.04292e-012	1.16662e-011	1.38314e-011	1.59981e-011	1.79706e-011	1.94818e-011	2.1192e-011	2.27049e-011	2.42875e-011	2.53383e-011	2.69216e-011	
FineR240	-1.37001e-010	-1.04553e-010	-8.2628e-011	-6.5762e-011	-5.25129e-011	-4.18181e-011	-3.24778e-011	-2.48766e-011	-1.8833e-011	-1.28965e-011	-7.94467e-012	-3.37418e-012	8.79393e-014	3.55301e-012	6.56131e-012	9.18249e-012	1.19328e-011	1.4166e-011	1.61365e-011	1.80393e-011	1.99429e-011	2.15242e-011	2.30366e-011	2.43536e-011	2.58684e-011	2.69226e-011	
FineR250	-1.36342e-010	-1.04196e-010	-8.25455e-011	-6.56727e-011	-5.24269e-011	-4.12805e-011	-3.26698e-011	-2.49901e-011	-1.84881e-011	-1.28961e-011	-7.94418e-012	-3.7608e-012	3.54371e-013	3.81996e-012	6.63332e-012	9.64499e-012	1.20729e-011	1.43636e-011	1.6402e-011	1.83048e-011	2.00799e-011	2.17895e-011	2.33028e-011	2.46198e-011	2.56732e-011	2.69923e-011	
MinCout:	-5.11146e-014	FineR:	100	FineC:	140

	FineC120	FineC121	FineC122	FineC123	FineC124	FineC125	FineC126	FineC127	FineC128	FineC129	FineC130	FineC131	FineC132	FineC133	FineC134	FineC135	FineC136	FineC137	FineC138	FineC139	FineC140	
FineR120	-5.05867e-012	-4.67053e-012	-4.21076e-012	-3.75059e-012	-3.55633e-012	-3.36209e-012	-3.16779e-012	-2.70761e-012	-2.24763e-012	-1.7875e-012	-1.39878e-012	-9.38617e-013	-4.78468e-013	-7.43939e-013	-8.91838e-014	1.05509e-013	5.65714e-013	5.65714e-013	1.22075e-012	1.22075e-012	1.87594e-012	
FineR121	-5.0592e-012	-4.59902e-012	-4.21104e-012	-3.75084e-012	-3.291e-012	-3.09648e-012	-3.09648e-012	-2.44222e-012	-1.98207e-012	-1.85898e-012	-1.5932e-012	-9.38617e-013	-9.38617e-013	-2.83896e-013	-2.83896e-013	3.70967e-013	5.65524e-013	8.31135e-013	1.02614e-012	1.48615e-012	1.68127e-012	
FineR122	-4.79346e-012	-4.40553e-012	-3.94532e-012	-3.94508e-012	-3.291e-012	-3.09671e-012	-2.63678e-012	-2.17662e-012	-2.05363e-012	-1.78782e-012	-1.39905e-012	-1.13327e-012	-6.73109e-013	-4.78585e-013	-1.84134e-014	3.70967e-013	3.70967e-013	8.31135e-013	1.29153e-012	1.48615e-012	1.68092e-012	
FineR123	-4.79346e-012	-4.33332e-012	-4.13955e-012	-3.6794e-012	-3.02535e-012	-3.02535e-012	-2.63678e-012	-2.44244e-012	-1.98241e-012	-1.52225e-012	-1.59341e-012	-1.13327e-012	-6.73109e-013	-4.78585e-013	-1.84134e-014	6.36425e-013	6.36425e-013	1.02597e-012	1.02597e-012	1.48615e-012	1.94664e-012	
FineR124	-4.79369e-012	-4.59927e-012	-3.87384e-012	-3.75145e-012	-3.48551e-012	-2.83132e-012	-2.37115e-012	-2.17681e-012	-1.98241e-012	-1.52225e-012	-1.3279e-012	-8.67728e-013	-4.78766e-013	-2.13066e-013	2.47069e-013	2.47188e-013	6.36425e-013	1.09656e-012	1.29141e-012	1.75187e-012	1.94653e-012	
FineR125	-4.52791e-012	-4.334e-012	-3.87384e-012	-3.21981e-012	-2.95399e-012	-3.02535e-012	-2.56524e-012	-2.37115e-012	-1.71681e-012	-1.25668e-012	-1.06232e-012	-8.67728e-013	-6.73252e-013	-2.13066e-013	4.41737e-013	4.41737e-013	9.01883e-013	8.31214e-013	1.29141e-012	1.75187e-012	1.94653e-012	
FineR126	-4.72209e-012	-4.06825e-012	-3.87384e-012	-3.67999e-012	-3.21981e-012	-2.75969e-012	-2.56565e-012	-2.10552e-012	-1.71681e-012	-1.25676e-012	-1.06232e-012	-6.02183e-013	-6.73252e-013	-2.13066e-013	-1.84577e-014	4.41737e-013	9.01883e-013	1.09668e-012	1.75177e-012	1.75177e-012	1.94653e-012	
FineR127	-4.52791e-012	-4.06825e-012	-3.87402e-012	-3.41426e-012	-2.95412e-012	-2.29998e-012	-2.56565e-012	-1.91134e-012	-1.4512e-012	-1.71681e-012	-1.06232e-012	-7.96632e-013	-4.07696e-013	5.2453e-014	2.47073e-013	7.07232e-013	9.01883e-013	1.09668e-012	1.55684e-012	1.55684e-012	2.21194e-012	
FineR128	-4.45631e-012	-4.06842e-012	-3.87402e-012	-3.41426e-012	-2.95412e-012	-2.56581e-012	-2.29998e-012	-1.6457e-012	-1.6457e-012	-1.25689e-012	-1.06247e-012	-6.02303e-013	-1.4214e-013	5.12604e-013	3.17972e-013	7.07232e-013	7.07232e-013	1.36215e-012	1.55675e-012	2.01722e-012	2.28269e-012	
FineR129	-4.52862e-012	-3.80249e-012	-3.80249e-012	-3.14853e-012	-2.76028e-012	-2.49443e-012	-2.29998e-012	-1.91149e-012	-1.6457e-012	-9.91277e-013	-9.91277e-013	-7.96742e-013	-4.07829e-013	5.24317e-014	5.12604e-013	5.12604e-013	1.16749e-012	1.62762e-012	1.36215e-012	1.82227e-012	2.01722e-012	
FineR130	-4.2628e-012	-3.80263e-012	-3.80249e-012	-3.41442e-012	-3.14853e-012	-2.49415e-012	-2.03432e-012	-1.64581e-012	-1.6457e-012	-1.1856e-012	-9.91277e-013	-3.3671e-013	-7.10701e-014	-1.4214e-013	5.12604e-013	5.12604e-013	9.72726e-013	1.43303e-012	1.82252e-012	2.01715e-012	2.28266e-012	
FineR131	-4.45646e-012	-3.99684e-012	-3.34292e-012	-2.8828e-012	-2.8828e-012	-2.49443e-012	-2.10599e-012	-1.84018e-012	-1.18579e-012	-1.18568e-012	-9.91277e-013	-3.3671e-013	1.23415e-013	1.23415e-013	5.12521e-013	7.78135e-013	1.23822e-012	1.16749e-012	1.82252e-012	1.82252e-012	2.28266e-012	
FineR132	-4.19117e-012	-3.73105e-012	-3.34292e-012	-3.14866e-012	-2.8828e-012	-2.22872e-012	-2.03463e-012	-1.5745e-012	-1.18579e-012	-1.18579e-012	-7.2566e-013	-7.11182e-014	-7.11182e-014	5.83566e-013	3.17999e-013	9.72851e-013	9.72851e-013	1.433e-012	1.89337e-012	2.088e-012	2.5481e-012	
FineR133	-4.19117e-012	-3.73105e-012	-3.34303e-012	-2.88324e-012	-2.68895e-012	-2.22872e-012	-2.03463e-012	-1.84028e-012	-1.38028e-012	-9.20136e-013	-4.60091e-013	-2.65629e-013	1.23417e-013	1.23417e-013	5.83566e-013	1.23839e-012	1.23839e-012	1.6985e-012	1.89336e-012	2.28298e-012	2.54847e-012	
FineR134	-3.73161e-012	-3.99697e-012	-3.53728e-012	-2.88324e-012	-2.42311e-012	-2.42311e-012	-1.76892e-012	-1.5745e-012	-1.38028e-012	-9.20136e-013	-4.60043e-013	-2.65629e-013	3.89021e-013	3.89021e-013	7.78234e-013	9.72793e-013	1.23839e-012	1.89336e-012	1.89336e-012	2.0883e-012	2.54847e-012	
FineR135	-4.19128e-012	-3.73161e-012	-3.27147e-012	-2.88333e-012	-2.61747e-012	-2.22906e-012	-2.22906e-012	-1.76892e-012	-1.11459e-012	-7.25843e-013	-4.60116e-013	0	-7.11413e-014	3.89021e-013	8.49134e-013	1.04381e-012	1.23857e-012	1.69875e-012	2.0883e-012	2.0883e-012	2.81397e-012	
FineR136	-4.11961e-012	-3.7317e-012	-3.07769e-012	-2.88333e-012	-2.61747e-012	-2.22914e-012	-1.96331e-012	-1.57481e-012	-1.11463e-012	-9.20282e-013	-4.60141e-013	-7.11894e-014	1.94499e-013	8.49257e-013	8.49257e-013	1.04381e-012	1.50414e-012	1.69875e-012	1.89363e-012	2.35382e-012	2.81397e-012	
FineR137	-3.92593e-012	-3.46578e-012	-2.8118e-012	-2.8118e-012	-2.35169e-012	-1.96335e-012	-1.76919e-012	-1.30902e-012	-1.11463e-012	-6.5458e-013	-1.94451e-013	-2.65677e-013	1.94499e-013	6.54709e-013	8.49257e-013	1.50416e-012	1.50416e-012	1.69875e-012	2.15917e-012	2.35382e-012	2.81397e-012	
FineR138	-3.66005e-012	-3.46578e-012	-3.27196e-012	-2.61786e-012	-2.15768e-012	-2.15768e-012	-1.50342e-012	-1.30902e-012	-1.0433e-012	-3.88879e-013	-3.88902e-013	0	4.60139e-013	4.60139e-013	8.49257e-013	1.30939e-012	1.50416e-012	1.9643e-012	2.1592e-012	2.61935e-012	2.61935e-012	
FineR139	-3.66005e-012	-3.46583e-012	-3.00611e-012	-2.54599e-012	-2.35171e-012	-2.15768e-012	-1.50342e-012	-1.50342e-012	-8.49021e-013	-6.54594e-013	-1.94476e-013	2.65677e-013	2.6564e-013	6.54723e-013	1.11487e-012	1.11487e-012	1.76975e-012	2.03525e-012	2.42476e-012	2.69023e-012	2.81438e-012	
FineR140	-3.6601e-012	-3.39418e-012	-3.00611e-012	-2.54599e-012	-2.35203e-012	-1.69781e-012	-1.50344e-012	-1.23766e-012	-8.49021e-013	-5.83318e-013	-1.94476e-013	7.12144e-014	2.65677e-013	6.54723e-013	1.18594e-012	1.30959e-012	1.76975e-012	2.23012e-012	2.42476e-012	2.4247e-012	3.07992e-012	
MinCout:	0	FineR:	135	FineC:	131

