	CoarseC0	CoarseC10	CoarseC20	CoarseC30	CoarseC40	CoarseC50	CoarseC60	CoarseC70	CoarseC80	CoarseC90	CoarseC100	CoarseC110	CoarseC120	CoarseC130	CoarseC140	CoarseC150	CoarseC160	CoarseC170	CoarseC180	CoarseC190	CoarseC200	CoarseC210	CoarseC220	CoarseC230	CoarseC240	CoarseC250	
CoarseR0	-2.39131e-009	-2.3773e-009	-2.35828e-009	-2.33332e-009	-2.30402e-009	-2.2716e-009	-2.23608e-009	-2.19767e-009	-2.15521e-009	-2.11032e-009	-2.06073e-009	-2.00514e-009	-1.94919e-009	-1.89799e-009	-1.84988e-009	-1.80478e-009	-1.76286e-009	-1.72447e-009	-1.68776e-009	-1.65413e-009	-1.62274e-009	-1.5939e-009	-1.56592e-009	-1.54015e-009	-1.51576e-009	-1.49249e-009	
CoarseR10	-1.75269e-009	-1.73524e-009	-1.71362e-009	-1.6877e-009	-1.65807e-009	-1.62547e-009	-1.59029e-009	-1.55165e-009	-1.51046e-009	-1.46475e-009	-1.41069e-009	-1.35811e-009	-1.30907e-009	-1.26338e-009	-1.22082e-009	-1.1805e-009	-1.14414e-009	-1.10997e-009	-1.07746e-009	-1.04785e-009	-1.02034e-009	-9.93822e-010	-9.69394e-010	-9.46316e-010	-9.24703e-010	-9.04128e-010	
CoarseR20	-1.38925e-009	-1.36744e-009	-1.34398e-009	-1.31726e-009	-1.28699e-009	-1.2543e-009	-1.21848e-009	-1.17985e-009	-1.1371e-009	-1.08569e-009	-1.03336e-009	-9.85727e-010	-9.40615e-010	-8.98593e-010	-8.59969e-010	-8.23831e-010	-7.90568e-010	-7.59379e-010	-7.30664e-010	-7.0366e-010	-6.78184e-010	-6.54763e-010	-6.31919e-010	-6.11055e-010	-5.91711e-010	-5.73065e-010	
CoarseR30	-1.15482e-009	-1.1316e-009	-1.10682e-009	-1.07923e-009	-1.04801e-009	-1.01424e-009	-9.77637e-010	-9.37747e-010	-8.8909e-010	-8.37402e-010	-7.89247e-010	-7.43877e-010	-7.01484e-010	-6.63097e-010	-6.27221e-010	-5.93995e-010	-5.63431e-010	-5.34417e-010	-5.07584e-010	-4.82684e-010	-4.59498e-010	-4.37451e-010	-4.16817e-010	-3.9737e-010	-3.79223e-010	-3.61987e-010	
CoarseR40	-9.90538e-010	-9.66252e-010	-9.40531e-010	-9.11445e-010	-8.79595e-010	-8.4452e-010	-8.06902e-010	-7.6346e-010	-7.10203e-010	-6.61304e-010	-6.15168e-010	-5.72151e-010	-5.32481e-010	-4.96386e-010	-4.62796e-010	-4.31728e-010	-4.03194e-010	-3.76086e-010	-3.50674e-010	-3.27345e-010	-3.0554e-010	-2.84995e-010	-2.65491e-010	-2.47382e-010	-2.30101e-010	-2.14129e-010	
CoarseR50	-8.69403e-010	-8.43829e-010	-8.17026e-010	-7.86562e-010	-7.53295e-010	-7.17291e-010	-6.77416e-010	-6.26742e-010	-5.75607e-010	-5.28562e-010	-4.84006e-010	-4.43365e-010	-4.05633e-010	-3.71588e-010	-3.39914e-010	-3.10312e-010	-2.83187e-010	-2.57369e-010	-2.33513e-010	-2.11062e-010	-1.90526e-010	-1.71184e-010	-1.52721e-010	-1.35643e-010	-1.19787e-010	-1.04085e-010	
CoarseR60	-7.76388e-010	-7.48858e-010	-7.20685e-010	-6.89647e-010	-6.54915e-010	-6.17136e-010	-5.72838e-010	-5.19704e-010	-4.70601e-010	-4.24171e-010	-3.81644e-010	-3.42836e-010	-3.06834e-010	-2.74271e-010	-2.44093e-010	-2.1587e-010	-1.90022e-010	-1.65382e-010	-1.42691e-010	-1.21452e-010	-1.01443e-010	-8.32887e-011	-6.54891e-011	-4.95584e-011	-3.42184e-011	-1.9663e-011	
CoarseR70	-7.02726e-010	-6.74145e-010	-6.44528e-010	-6.12326e-010	-5.764e-010	-5.36695e-010	-4.86029e-010	-4.34379e-010	-3.85818e-010	-3.41002e-010	-2.99743e-010	-2.6266e-010	-2.28244e-010	-1.96981e-010	-1.677e-010	-1.40721e-010	-1.15718e-010	-9.22468e-011	-7.02625e-011	-5.01198e-011	-3.13852e-011	-1.34899e-011	2.98834e-012	1.89161e-011	3.33979e-011	4.72684e-011	
CoarseR80	-6.42866e-010	-6.12994e-010	-5.8232e-010	-5.48581e-010	-5.11022e-010	-4.68265e-010	-4.13921e-010	-3.63672e-010	-3.1546e-010	-2.72564e-010	-2.3235e-010	-1.96451e-010	-1.63035e-010	-1.32756e-010	-1.05078e-010	-7.8838e-011	-5.4359e-011	-3.19731e-011	-1.08302e-011	8.69771e-012	2.72026e-011	4.40597e-011	6.01011e-011	7.49305e-011	8.89647e-011	1.02225e-010	
CoarseR90	-5.92034e-010	-5.61006e-010	-5.29523e-010	-4.94554e-010	-4.55476e-010	-4.06361e-010	-3.53068e-010	-3.02565e-010	-2.55842e-010	-2.14031e-010	-1.75359e-010	-1.40579e-010	-1.08073e-010	-7.90609e-011	-5.15535e-011	-2.62044e-011	-2.72276e-012	1.88407e-011	3.95965e-011	5.84732e-011	7.6143e-011	9.23676e-011	1.08236e-010	1.22446e-010	1.35591e-010	1.48411e-010	
CoarseR100	-5.4937e-010	-5.17062e-010	-4.84277e-010	-4.4821e-010	-4.06846e-010	-3.53781e-010	-3.01201e-010	-2.509e-010	-2.05251e-010	-1.64444e-010	-1.2687e-010	-9.29841e-011	-6.14694e-011	-3.28426e-011	-6.38896e-012	1.85774e-011	4.12434e-011	6.24156e-011	8.23388e-011	1.00831e-010	1.17618e-010	1.3343e-010	1.48663e-010	1.62428e-010	1.75191e-010	1.87338e-010	
CoarseR110	-5.12906e-010	-4.79182e-010	-4.45173e-010	-4.07659e-010	-3.6317e-010	-3.07088e-010	-2.54403e-010	-2.05319e-010	-1.60906e-010	-1.20999e-010	-8.42225e-011	-5.10628e-011	-2.01766e-011	7.4082e-012	3.34985e-011	5.76566e-011	7.94415e-011	1.00231e-010	1.1997e-010	1.3763e-010	1.54255e-010	1.69461e-010	1.84256e-010	1.97831e-010	2.09716e-010	2.21403e-010	
CoarseR120	-4.79894e-010	-4.45035e-010	-4.10324e-010	-3.71257e-010	-3.21544e-010	-2.66308e-010	-2.13308e-010	-1.65069e-010	-1.21721e-010	-8.28704e-011	-4.64379e-011	-1.43226e-011	1.57097e-011	4.33735e-011	6.84639e-011	9.20082e-011	1.13871e-010	1.34086e-010	1.53005e-010	1.70449e-010	1.86444e-010	2.0164e-010	2.15809e-010	2.28266e-010	2.40376e-010	2.51402e-010	
CoarseR130	-4.51471e-010	-4.1544e-010	-3.79174e-010	-3.3862e-010	-2.85005e-010	-2.29834e-010	-1.76981e-010	-1.30047e-010	-8.72021e-011	-4.89521e-011	-1.32973e-011	1.83946e-011	4.8166e-011	7.45829e-011	9.96929e-011	1.22873e-010	1.44166e-010	1.63936e-010	1.82446e-010	1.9925e-010	2.14874e-010	2.29667e-010	2.43355e-010	2.55834e-010	2.67273e-010	2.77814e-010	
CoarseR140	-4.25838e-010	-3.88481e-010	-3.51152e-010	-3.08952e-010	-2.51884e-010	-1.96207e-010	-1.44374e-010	-9.77911e-011	-5.58233e-011	-1.80687e-011	1.64673e-011	4.80976e-011	7.70554e-011	1.03498e-010	1.2781e-010	1.50594e-010	1.7151e-010	1.90688e-010	2.0901e-010	2.2544e-010	2.40804e-010	2.55147e-010	2.68194e-010	2.80199e-010	2.91147e-010	3.01454e-010	
CoarseR150	-4.02272e-010	-3.64032e-010	-3.25215e-010	-2.8052e-010	-2.21309e-010	-1.65433e-010	-1.14364e-010	-6.89614e-011	-2.74483e-011	9.85046e-012	4.41441e-011	7.47686e-011	1.03503e-010	1.29666e-010	1.53604e-010	1.76002e-010	1.96456e-010	2.15442e-010	2.33089e-010	2.49112e-010	2.64081e-010	2.77941e-010	2.90737e-010	3.02287e-010	3.13237e-010	3.23096e-010	
CoarseR160	-3.81366e-010	-3.41492e-010	-3.0201e-010	-2.53007e-010	-1.9392e-010	-1.37747e-010	-8.75993e-011	-4.24532e-011	-1.45765e-012	3.49961e-011	6.92027e-011	9.94977e-011	1.27592e-010	1.52906e-010	1.76908e-010	1.98962e-010	2.19024e-010	2.37845e-010	2.55528e-010	2.71059e-010	2.85554e-010	2.98967e-010	3.11329e-010	3.23108e-010	3.33314e-010	3.42595e-010	
CoarseR170	-3.61609e-010	-3.21113e-010	-2.80434e-010	-2.27941e-010	-1.68471e-010	-1.12581e-010	-6.30584e-011	-1.86483e-011	2.1734e-011	5.84532e-011	9.13235e-011	1.21898e-010	1.49534e-010	1.74664e-010	1.98285e-010	2.19902e-010	2.39847e-010	2.58177e-010	2.75464e-010	2.91012e-010	3.05046e-010	3.18468e-010	3.30316e-010	3.41309e-010	3.51501e-010	3.60308e-010	
CoarseR180	-3.43361e-010	-3.01922e-010	-2.5989e-010	-2.03996e-010	-1.44216e-010	-8.91467e-011	-4.01642e-011	4.03543e-012	4.41817e-011	7.98952e-011	1.1289e-010	1.42859e-010	1.70317e-010	1.95106e-010	2.18338e-010	2.39758e-010	2.59245e-010	2.77366e-010	2.94223e-010	3.09564e-010	3.23556e-010	3.36231e-010	3.4807e-010	3.58812e-010	3.68012e-010	3.76742e-010	
CoarseR190	-3.26998e-010	-2.84446e-010	-2.41185e-010	-1.82786e-010	-1.22364e-010	-6.77096e-011	-1.90553e-011	2.45166e-011	6.40185e-011	9.94372e-011	1.32077e-010	1.61723e-010	1.88992e-010	2.13893e-010	2.36721e-010	2.5797e-010	2.76738e-010	2.94662e-010	3.11293e-010	3.26136e-010	3.39875e-010	3.52325e-010	3.63915e-010	3.74109e-010	3.83209e-010	3.91666e-010	
CoarseR200	-3.11403e-010	-2.68045e-010	-2.23453e-010	-1.62727e-010	-1.02066e-010	-4.80095e-011	3.73977e-013	4.36043e-011	8.27574e-011	1.17904e-010	1.50372e-010	1.7939e-010	2.06307e-010	2.31004e-010	2.5366e-010	2.74693e-010	2.93688e-010	3.11176e-010	3.27595e-010	3.42197e-010	3.5593e-010	3.67602e-010	3.79172e-010	3.88804e-010	3.97867e-010	4.05745e-010	
CoarseR210	-2.96992e-010	-2.52739e-010	-2.06436e-010	-1.43977e-010	-8.30398e-011	-2.94453e-011	1.80021e-011	6.12046e-011	9.99695e-011	1.35262e-010	1.67148e-010	1.96411e-010	2.23239e-010	2.47215e-010	2.69656e-010	2.89952e-010	3.08834e-010	3.26536e-010	3.42652e-010	3.56779e-010	3.70279e-010	3.82142e-010	3.93152e-010	4.02504e-010	4.11007e-010	4.18538e-010	
CoarseR220	-2.83747e-010	-2.38481e-010	-1.8947e-010	-1.26091e-010	-6.58034e-011	-1.22558e-011	3.49794e-011	7.77522e-011	1.16147e-010	1.5086e-010	1.82739e-010	2.11399e-010	2.3826e-010	2.6226e-010	2.84273e-010	3.04888e-010	3.23534e-010	3.40492e-010	3.56358e-010	3.70705e-010	3.83714e-010	3.95545e-010	4.05977e-010	4.15285e-010	4.23414e-010	4.30664e-010	
CoarseR230	-2.71243e-010	-2.24928e-010	-1.729e-010	-1.09548e-010	-4.93055e-011	3.67081e-012	5.07054e-011	9.29236e-011	1.31644e-010	1.65979e-010	1.97835e-010	2.26278e-010	2.52726e-010	2.76613e-010	2.98426e-010	3.19042e-010	3.37371e-010	3.5439e-010	3.70013e-010	3.84008e-010	3.96773e-010	4.07786e-010	4.18173e-010	4.27122e-010	4.34952e-010	4.42057e-010	
CoarseR240	-2.59374e-010	-2.12327e-010	-1.57746e-010	-9.40743e-011	-3.38338e-011	1.87388e-011	6.53242e-011	1.07126e-010	1.45458e-010	1.80173e-010	2.1135e-010	2.39617e-010	2.65833e-010	2.89729e-010	3.11758e-010	3.31919e-010	3.49804e-010	3.66797e-010	3.82383e-010	3.96211e-010	4.08515e-010	4.19815e-010	4.29602e-010	4.38252e-010	4.46018e-010	4.52271e-010	
CoarseR250	-2.48121e-010	-2.00148e-010	-1.43616e-010	-7.94532e-011	-1.96746e-011	3.26068e-011	7.92331e-011	1.20986e-010	1.58919e-010	1.93206e-010	2.2442e-010	2.52779e-010	2.78804e-010	3.02251e-010	3.2406e-010	3.43991e-010	3.62367e-010	3.78563e-010	3.94122e-010	4.07355e-010	4.1971e-010	4.30628e-010	4.40579e-010	4.48874e-010	4.56015e-010	4.61948e-010	
MinCout:	3.73977e-013	CoarseR:	200	CoarseC:	60

	CoarseC130	CoarseC131	CoarseC132	CoarseC133	CoarseC134	CoarseC135	CoarseC136	CoarseC137	CoarseC138	CoarseC139	CoarseC140	CoarseC141	CoarseC142	CoarseC143	CoarseC144	CoarseC145	CoarseC146	CoarseC147	CoarseC148	CoarseC149	CoarseC150	
CoarseR90	-7.90351e-011	-7.63888e-011	-7.34872e-011	-7.08262e-011	-6.79225e-011	-6.52705e-011	-6.24263e-011	-5.95168e-011	-5.70433e-011	-5.41946e-011	-5.17792e-011	-4.93009e-011	-4.64477e-011	-4.39677e-011	-4.15464e-011	-3.88803e-011	-3.63895e-011	-3.37798e-011	-3.17297e-011	-2.90584e-011	-2.61936e-011	
CoarseR91	-7.41725e-011	-7.14496e-011	-6.90432e-011	-6.59612e-011	-6.30566e-011	-6.03934e-011	-5.7304e-011	-5.4831e-011	-5.24169e-011	-4.97509e-011	-4.72732e-011	-4.46121e-011	-4.17587e-011	-3.92783e-011	-3.68568e-011	-3.43738e-011	-3.15144e-011	-2.92806e-011	-2.68528e-011	-2.43666e-011	-2.1936e-011	
CoarseR92	-6.94034e-011	-6.67487e-011	-6.38462e-011	-6.09394e-011	-5.85332e-011	-5.56272e-011	-5.25994e-011	-4.98719e-011	-4.72141e-011	-4.47998e-011	-4.21388e-011	-3.94083e-011	-3.70503e-011	-3.45085e-011	-3.20868e-011	-2.9419e-011	-2.68095e-011	-2.43244e-011	-2.20825e-011	-1.95941e-011	-1.69783e-011	
CoarseR93	-6.46683e-011	-6.20194e-011	-5.89334e-011	-5.62755e-011	-5.33667e-011	-5.07119e-011	-4.78666e-011	-4.52086e-011	-4.27257e-011	-3.98139e-011	-3.76486e-011	-3.49174e-011	-3.23138e-011	-2.98318e-011	-2.74093e-011	-2.49254e-011	-2.225e-011	-1.98282e-011	-1.7586e-011	-1.49116e-011	-1.24181e-011	
CoarseR94	-5.95407e-011	-5.73171e-011	-5.44134e-011	-5.17523e-011	-4.86658e-011	-4.61908e-011	-4.33452e-011	-4.06864e-011	-3.78374e-011	-3.53582e-011	-3.2874e-011	-3.02099e-011	-2.73552e-011	-2.53076e-011	-2.26392e-011	-2.04004e-011	-1.72946e-011	-1.53022e-011	-1.306e-011	-1.03864e-011	-7.95482e-012	
CoarseR95	-5.49992e-011	-5.23443e-011	-4.96196e-011	-4.67785e-011	-4.41233e-011	-4.13963e-011	-3.85507e-011	-3.58913e-011	-3.34775e-011	-3.05627e-011	-2.81459e-011	-2.59112e-011	-2.28095e-011	-2.03266e-011	-1.80888e-011	-1.54181e-011	-1.31782e-011	-1.05048e-011	-8.26285e-012	-5.89541e-012	-2.96872e-012	
CoarseR96	-5.04891e-011	-4.77649e-011	-4.51768e-011	-4.22705e-011	-3.96115e-011	-3.69507e-011	-3.42889e-011	-3.14436e-011	-2.89615e-011	-2.62982e-011	-2.40646e-011	-2.11485e-011	-1.87276e-011	-1.60587e-011	-1.3821e-011	-1.11494e-011	-8.47625e-012	-6.23517e-012	-3.80578e-012	-1.12835e-012	1.11611e-012	
CoarseR97	-4.59574e-011	-4.32328e-011	-4.0579e-011	-3.7737e-011	-3.50101e-011	-3.24161e-011	-2.95054e-011	-2.70926e-011	-2.41771e-011	-2.17612e-011	-1.92794e-011	-1.68604e-011	-1.37563e-011	-1.17052e-011	-9.03391e-012	-6.7949e-012	-3.93456e-012	-1.44529e-012	7.35085e-013	3.41504e-012	5.90643e-012	
CoarseR98	-4.14658e-011	-3.87405e-011	-3.6516e-011	-3.34238e-011	-3.05151e-011	-2.78557e-011	-2.50084e-011	-2.25949e-011	-2.01139e-011	-1.76315e-011	-1.49648e-011	-1.22966e-011	-9.43999e-012	-7.20343e-012	-4.96523e-012	-2.29134e-012	3.84654e-013	2.87397e-012	5.05605e-012	7.29982e-012	1.02286e-011	
CoarseR99	-3.71283e-011	-3.49047e-011	-3.18126e-011	-2.91547e-011	-2.62414e-011	-2.38311e-011	-2.07332e-011	-1.85026e-011	-1.55879e-011	-1.3171e-011	-1.09369e-011	-8.01829e-012	-5.34676e-012	-3.17253e-012	-8.71877e-013	1.55421e-012	4.41774e-012	6.6596e-012	9.33898e-012	1.1583e-011	1.4017e-011	
CoarseR100	-3.28339e-011	-3.06103e-011	-2.77026e-011	-2.4608e-011	-2.21952e-011	-1.9652e-011	-1.64354e-011	-1.41403e-011	-1.15386e-011	-9.05547e-012	-6.3877e-012	-3.90281e-012	-1.29434e-012	1.19193e-012	3.43035e-012	5.8569e-012	8.53416e-012	1.07758e-011	1.34558e-011	1.58885e-011	1.81336e-011	
CoarseR101	-2.86971e-011	-2.60409e-011	-2.33802e-011	-2.04709e-011	-1.80618e-011	-1.53993e-011	-1.25506e-011	-9.81931e-012	-7.21686e-012	-4.733e-012	-2.06324e-012	1.71901e-013	2.84257e-012	5.26842e-012	7.9443e-012	1.01842e-011	1.26729e-011	1.5105e-011	1.75976e-011	2.00306e-011	2.26538e-011	
CoarseR102	-2.43597e-011	-2.19548e-011	-1.90409e-011	-1.63829e-011	-1.3717e-011	-1.08041e-011	-7.95514e-012	-5.2885e-012	-3.05647e-012	-2.02508e-013	1.84735e-012	4.51974e-012	7.19201e-012	9.8672e-012	1.19181e-011	1.43455e-011	1.70248e-011	1.94552e-011	2.17014e-011	2.41351e-011	2.63805e-011	
CoarseR103	-2.01299e-011	-1.74024e-011	-1.51774e-011	-1.22664e-011	-9.41679e-012	-6.9425e-012	-3.65317e-012	-1.6093e-012	8.10003e-013	3.48044e-012	5.90056e-012	8.63625e-012	1.14989e-011	1.35487e-011	1.59786e-011	1.82187e-011	2.10839e-011	2.33304e-011	2.58248e-011	2.8259e-011	3.06938e-011	
CoarseR104	-1.57427e-011	-1.35185e-011	-1.08572e-011	-7.94909e-012	-5.28079e-012	-3.05207e-012	5.11907e-014	2.71985e-012	5.20056e-012	7.8071e-012	1.04804e-011	1.25282e-011	1.53925e-011	1.76307e-011	2.03097e-011	2.25501e-011	2.5232e-011	2.74746e-011	2.97229e-011	3.21575e-011	3.47832e-011	
CoarseR105	-1.19037e-011	-9.67932e-012	-6.76753e-012	-4.29169e-012	-1.19023e-012	1.47647e-012	4.13963e-012	6.62464e-012	9.04231e-012	1.17175e-011	1.41385e-011	1.66277e-011	1.95522e-011	2.17307e-011	2.42229e-011	2.6652e-011	2.91462e-011	3.13889e-011	3.3828e-011	3.62634e-011	3.85098e-011	
CoarseR106	-8.2311e-012	-5.50206e-012	-2.83902e-012	-1.80224e-013	2.41925e-012	5.15191e-012	8.25768e-012	1.04892e-011	1.31615e-011	1.55815e-011	1.80705e-011	2.04937e-011	2.3232e-011	2.56582e-011	2.79042e-011	3.01448e-011	3.30181e-011	3.52613e-011	3.75056e-011	4.00033e-011	4.23844e-011	
CoarseR107	-4.03279e-012	-1.80849e-012	8.55481e-013	3.95784e-012	6.36985e-012	9.29111e-012	1.19545e-011	1.46265e-011	1.68594e-011	1.97232e-011	2.2024e-011	2.44475e-011	2.71213e-011	2.95552e-011	3.17951e-011	3.44789e-011	3.67211e-011	3.89643e-011	4.14061e-011	4.36517e-011	4.63425e-011	
CoarseR108	5.15417e-014	2.53286e-012	5.19067e-012	7.60615e-012	1.0523e-011	1.30083e-011	1.6046e-011	1.85337e-011	2.07669e-011	2.34429e-011	2.59335e-011	2.83574e-011	3.09729e-011	3.32771e-011	3.55172e-011	3.8392e-011	4.06345e-011	4.33223e-011	4.51308e-011	4.75671e-011	5.00055e-011	
CoarseR109	3.71522e-012	6.12322e-012	8.60649e-012	1.17115e-011	1.41883e-011	1.68592e-011	1.97124e-011	2.22008e-011	2.46205e-011	2.72979e-011	2.97895e-011	3.20264e-011	3.48978e-011	3.69471e-011	3.93852e-011	4.16268e-011	4.43143e-011	4.65582e-011	4.88031e-011	5.14947e-011	5.39328e-011	
CoarseR110	7.40122e-012	1.00674e-011	1.2294e-011	1.54003e-011	1.80621e-011	2.05494e-011	2.34033e-011	2.58926e-011	2.83159e-011	3.09942e-011	3.32279e-011	3.57214e-011	3.83385e-011	4.05784e-011	4.30749e-011	4.55065e-011	4.81958e-011	5.01941e-011	5.24397e-011	5.51324e-011	5.7572e-011	
MinCout:	5.11907e-014	CoarseR:	104	CoarseC:	136

	FineC0	FineC10	FineC20	FineC30	FineC40	FineC50	FineC60	FineC70	FineC80	FineC90	FineC100	FineC110	FineC120	FineC130	FineC140	FineC150	FineC160	FineC170	FineC180	FineC190	FineC200	FineC210	FineC220	FineC230	FineC240	FineC250	
FineR0	-2.0552e-010	-1.73416e-010	-1.52802e-010	-1.36828e-010	-1.24059e-010	-1.136e-010	-1.05037e-010	-9.74544e-011	-9.15088e-011	-8.61832e-011	-8.15392e-011	-7.74473e-011	-7.37155e-011	-7.04859e-011	-6.76191e-011	-6.51851e-011	-6.26946e-011	-6.04529e-011	-5.86336e-011	-5.67601e-011	-5.51351e-011	-5.35089e-011	-5.20683e-011	-5.05726e-011	-4.95664e-011	-4.8188e-011	
FineR10	-1.72081e-010	-1.40926e-010	-1.2075e-010	-1.04699e-010	-9.19927e-011	-8.1968e-011	-7.33376e-011	-6.59937e-011	-6.03033e-011	-5.47322e-011	-5.02689e-011	-4.61739e-011	-4.24425e-011	-3.94531e-011	-3.63436e-011	-3.39102e-011	-3.14168e-011	-2.9416e-011	-2.73561e-011	-2.57305e-011	-2.38561e-011	-2.24708e-011	-2.12233e-011	-1.97823e-011	-1.87762e-011	-1.75833e-011	
FineR20	-1.57357e-010	-1.2663e-010	-1.06287e-010	-9.02338e-011	-7.79563e-011	-6.77431e-011	-5.95472e-011	-5.21361e-011	-4.64474e-011	-4.09383e-011	-3.64123e-011	-3.21314e-011	-2.86508e-011	-2.55378e-011	-2.27358e-011	-2.03034e-011	-1.78094e-011	-1.58089e-011	-1.37485e-011	-1.21223e-011	-1.02459e-011	-8.80628e-012	-7.61481e-012	-6.17391e-012	-5.16791e-012	-3.72582e-012	
FineR30	-1.49127e-010	-1.18145e-010	-9.79804e-011	-8.24336e-011	-6.99043e-011	-5.98809e-011	-5.15025e-011	-4.41579e-011	-3.82218e-011	-3.28949e-011	-2.84301e-011	-2.42685e-011	-2.07887e-011	-1.75547e-011	-1.45027e-011	-1.22602e-011	-1.00118e-011	-7.76593e-012	-5.70529e-012	-4.32428e-012	-2.45009e-012	-8.21437e-013	6.18754e-013	1.62406e-012	2.87502e-012	4.31693e-012	
FineR40	-1.43834e-010	-1.12851e-010	-9.2681e-011	-7.73076e-011	-6.47834e-011	-5.43255e-011	-4.6196e-011	-3.90387e-011	-3.28524e-011	-2.77763e-011	-2.34974e-011	-1.92153e-011	-1.57347e-011	-1.24367e-011	-9.57131e-012	-6.95228e-012	-4.89419e-012	-2.64797e-012	-8.334e-013	1.04157e-012	2.66729e-012	4.29606e-012	5.73612e-012	6.74129e-012	7.74702e-012	9.43457e-012	
FineR50	-1.401e-010	-1.09032e-010	-8.91217e-011	-7.35761e-011	-6.07983e-011	-5.07758e-011	-4.22131e-011	-3.52345e-011	-2.93626e-011	-2.42237e-011	-1.951e-011	-1.54138e-011	-1.19949e-011	-8.94607e-012	-6.08073e-012	-3.40139e-012	-1.15476e-012	9.04674e-013	2.71714e-012	4.77924e-012	6.40713e-012	7.84643e-012	9.03845e-012	1.02913e-011	1.17309e-011	1.29848e-011	
FineR60	-1.36956e-010	-1.06399e-010	-8.64868e-011	-7.04354e-011	-5.84129e-011	-4.8137e-011	-3.99376e-011	-3.27753e-011	-2.66579e-011	-2.13316e-011	-1.68673e-011	-1.27704e-011	-9.28983e-012	-5.99221e-012	-3.37613e-012	-9.44153e-013	1.36225e-012	3.79715e-012	5.42221e-012	7.23617e-012	8.92235e-012	1.03032e-011	1.1743e-011	1.27479e-011	1.41889e-011	1.54415e-011	
FineR70	-1.35044e-010	-1.04232e-010	-8.43218e-011	-6.85249e-011	-5.62502e-011	-4.60428e-011	-3.80274e-011	-3.08652e-011	-2.47451e-011	-1.96051e-011	-1.47087e-011	-1.10455e-011	-7.37908e-012	-4.08181e-012	-1.46571e-012	1.21379e-012	3.45975e-012	5.70781e-012	7.57984e-012	9.20638e-012	1.10218e-011	1.24616e-011	1.36536e-011	1.5094e-011	1.63463e-011	1.73523e-011	
FineR80	-1.33438e-010	-1.02628e-010	-8.24636e-011	-6.66674e-011	-5.43934e-011	-4.43704e-011	-3.61714e-011	-2.90782e-011	-2.2892e-011	-1.79994e-011	-1.32879e-011	-9.19034e-012	-5.71046e-012	-2.47551e-012	3.89199e-013	3.06878e-012	5.31452e-012	7.37393e-012	9.18672e-012	1.10612e-011	1.24417e-011	1.41279e-011	1.53203e-011	1.6513e-011	1.80129e-011	1.92069e-011	
FineR90	-1.3181e-010	-1.0109e-010	-8.135e-011	-6.55538e-011	-5.34634e-011	-4.30056e-011	-3.48072e-011	-2.78962e-011	-2.15262e-011	-1.66365e-011	-1.19885e-011	-7.82797e-012	-4.59709e-012	-1.11348e-012	1.75099e-012	4.18257e-012	6.4279e-012	8.48737e-012	1.03005e-011	1.23626e-011	1.39905e-011	1.54295e-011	1.68691e-011	1.78713e-011	1.90673e-011	2.03204e-011	
FineR100	-1.30931e-010	-1.00214e-010	-8.00498e-011	-6.44279e-011	-5.21561e-011	-4.19508e-011	-3.39372e-011	-2.65947e-011	-2.04743e-011	-1.53327e-011	-1.06223e-011	-6.96028e-012	-3.29433e-012	-2.46337e-013	2.61784e-012	5.2363e-012	7.54242e-012	9.35375e-012	1.16035e-011	1.32285e-011	1.48563e-011	1.62952e-011	1.77346e-011	1.89866e-011	2.04272e-011	2.14329e-011	
FineR110	-1.29867e-010	-9.88989e-011	-7.91631e-011	-6.36219e-011	-5.10988e-011	-4.1078e-011	-3.28806e-011	-2.55385e-011	-1.97867e-011	-1.42787e-011	-9.81558e-012	-5.71911e-012	-2.23918e-012	5.60514e-013	3.67305e-012	6.10423e-012	8.78594e-012	1.04086e-011	1.24107e-011	1.42834e-011	1.59112e-011	1.735e-011	1.87894e-011	1.97939e-011	2.12345e-011	2.22402e-011	
FineR120	-1.28882e-010	-9.85146e-011	-7.86093e-011	-6.27371e-011	-5.02169e-011	-4.02653e-011	-3.18884e-011	-2.5163e-011	-1.87937e-011	-1.37187e-011	-9.00799e-012	-5.34605e-012	-1.67988e-012	1.80359e-012	4.4809e-012	6.91128e-012	9.34459e-012	1.16519e-011	1.32168e-011	1.49015e-011	1.6529e-011	1.81555e-011	1.91593e-011	2.10375e-011	2.20427e-011	2.28572e-011	
FineR130	-1.28491e-010	-9.75253e-011	-7.7619e-011	-6.19988e-011	-4.9912e-011	-3.97083e-011	-3.13309e-011	-2.39196e-011	-1.82352e-011	-1.29105e-011	-8.38464e-012	-4.35135e-012	-8.71587e-013	2.42486e-012	5.04028e-012	7.71966e-012	9.96443e-012	1.22125e-011	1.40839e-011	1.56501e-011	1.75258e-011	1.89644e-011	2.02155e-011	2.16552e-011	2.28484e-011	2.3854e-011	
FineR140	-1.27503e-010	-9.67896e-011	-7.70532e-011	-6.12592e-011	-4.89196e-011	-3.88944e-011	-3.07685e-011	-2.36078e-011	-1.76738e-011	-1.23495e-011	-7.88696e-012	-3.79087e-012	-3.1135e-013	2.98485e-012	6.03629e-012	8.27933e-012	1.09608e-011	1.27718e-011	1.45848e-011	1.62091e-011	1.78368e-011	1.95233e-011	2.09624e-011	2.22139e-011	2.3407e-011	2.44126e-011	
FineR150	-1.2701e-010	-9.66445e-011	-7.6487e-011	-6.11213e-011	-4.83488e-011	-3.81466e-011	-2.97703e-011	-2.30456e-011	-1.69263e-011	-1.1602e-011	-7.3258e-012	-3.22997e-012	1.87036e-013	3.54526e-012	6.1603e-012	8.59086e-012	1.10838e-011	1.32708e-011	1.51423e-011	1.67686e-011	1.85835e-011	2.0022e-011	2.14612e-011	2.27134e-011	2.37183e-011	2.51592e-011	
FineR160	-1.26857e-010	-9.58947e-011	-7.61631e-011	-6.03727e-011	-4.81039e-011	-3.78339e-011	-2.97043e-011	-2.27301e-011	-1.66143e-011	-1.14743e-011	-6.76341e-012	-2.91762e-012	7.47831e-013	3.79527e-012	6.90746e-012	9.33798e-012	1.15824e-011	1.36413e-011	1.57016e-011	1.75156e-011	1.89532e-011	2.05816e-011	2.20207e-011	2.3025e-011	2.44652e-011	2.57185e-011	
FineR170	-1.26106e-010	-9.55807e-011	-7.56676e-011	-5.98067e-011	-4.77908e-011	-3.73367e-011	-2.9141e-011	-2.20503e-011	-1.62992e-011	-1.09759e-011	-6.51553e-012	-2.17028e-012	1.06006e-012	4.54271e-012	7.15797e-012	9.83739e-012	1.20818e-011	1.41409e-011	1.59529e-011	1.78249e-011	1.94523e-011	2.10808e-011	2.23326e-011	2.37722e-011	2.4777e-011	2.59709e-011	
FineR180	-1.25868e-010	-9.49042e-011	-7.51714e-011	-5.9302e-011	-4.71101e-011	-3.70185e-011	-2.86434e-011	-2.17345e-011	-1.58012e-011	-1.04777e-011	-6.20222e-012	-1.85755e-012	1.55867e-012	4.85432e-012	7.46915e-012	1.01482e-011	1.26419e-011	1.464e-011	1.67005e-011	1.85147e-011	1.97042e-011	2.13907e-011	2.30202e-011	2.40246e-011	2.55245e-011	2.62791e-011	
FineR190	-1.25117e-010	-9.45766e-011	-7.46749e-011	-5.90578e-011	-4.69738e-011	-3.67721e-011	-2.83264e-011	-2.14185e-011	-1.54862e-011	-1.01636e-011	-5.70376e-012	-1.60754e-012	2.05744e-012	5.10491e-012	8.21699e-012	1.06473e-011	1.27047e-011	1.51393e-011	1.69523e-011	1.86365e-011	2.04519e-011	2.18902e-011	2.28938e-011	2.43333e-011	2.57772e-011	2.65318e-011	
FineR200	-1.24878e-010	-9.42612e-011	-7.41783e-011	-5.88214e-011	-4.62991e-011	-3.6095e-011	-2.80827e-011	-2.09232e-011	-1.48066e-011	-9.73134e-012	-5.20499e-012	-1.17161e-012	2.3084e-012	5.60494e-012	8.46862e-012	1.10868e-011	1.31449e-011	1.5452e-011	1.7265e-011	1.90785e-011	2.05162e-011	2.2145e-011	2.35842e-011	2.4777e-011	2.60301e-011	2.70357e-011	
FineR210	-1.24819e-010	-9.38517e-011	-7.39451e-011	-5.83241e-011	-4.58015e-011	-3.57814e-011	-2.76506e-011	-2.04248e-011	-1.44913e-011	-9.23256e-012	-4.95578e-012	-6.7251e-013	2.62104e-012	5.91809e-012	8.96947e-012	1.12125e-011	1.36466e-011	1.59541e-011	1.77066e-011	1.93913e-011	2.12073e-011	2.2646e-011	2.3897e-011	2.52808e-011	2.65331e-011	2.75359e-011	
FineR220	-1.23903e-010	-9.36105e-011	-7.34484e-011	-5.78267e-011	-4.57394e-011	-3.53504e-011	-2.73372e-011	-2.01763e-011	-1.44924e-011	-9.1679e-012	-4.45551e-012	-6.08764e-013	2.871e-012	6.16729e-012	9.21947e-012	1.14623e-011	1.38954e-011	1.61428e-011	1.80143e-011	1.96398e-011	2.14557e-011	2.28943e-011	2.38981e-011	2.53379e-011	2.65911e-011	2.78436e-011	
FineR230	-1.24067e-010	-9.33557e-011	-7.36205e-011	-5.80017e-011	-4.56645e-011	-3.52112e-011	-2.69013e-011	-2.03584e-011	-1.42397e-011	-8.91611e-012	-4.20573e-012	-3.58509e-013	3.36909e-012	6.41632e-012	9.09206e-012	1.19583e-011	1.41431e-011	1.62024e-011	1.82629e-011	1.98864e-011	2.15139e-011	2.29522e-011	2.4391e-011	2.53952e-011	2.68353e-011	2.80887e-011	
FineR240	-1.24051e-010	-9.32695e-011	-7.33571e-011	-5.7749e-011	-4.52291e-011	-3.50264e-011	-2.65802e-011	-1.98572e-011	-1.37391e-011	-8.6021e-012	-4.14106e-012	-4.5946e-014	3.61939e-012	6.47851e-012	9.34212e-012	1.19594e-011	1.42645e-011	1.64511e-011	1.83221e-011	2.0136e-011	2.15722e-011	2.34489e-011	2.46405e-011	2.58916e-011	2.70846e-011	2.8338e-011	
FineR250	-1.23717e-010	-9.31833e-011	-7.30319e-011	-5.74186e-011	-4.49768e-011	-3.49542e-011	-2.65796e-011	-1.96065e-011	-1.3672e-011	-8.16609e-012	-3.89129e-012	1.77714e-014	3.68222e-012	6.72873e-012	9.59119e-012	1.22083e-011	1.47008e-011	1.65107e-011	1.85706e-011	2.03846e-011	2.18218e-011	2.34501e-011	2.48888e-011	2.58928e-011	2.71456e-011	2.83392e-011	
MinCout:	1.77714e-014	FineR:	250	FineC:	110

	FineC120	FineC121	FineC122	FineC123	FineC124	FineC125	FineC126	FineC127	FineC128	FineC129	FineC130	FineC131	FineC132	FineC133	FineC134	FineC135	FineC136	FineC137	FineC138	FineC139	FineC140	
FineR100	-3.54232e-012	-3.10734e-012	-2.92074e-012	-2.48548e-012	-2.11219e-012	-2.11219e-012	-1.49033e-012	-1.30344e-012	-6.81432e-013	-6.81432e-013	-5.9305e-014	-5.9305e-014	5.62944e-013	5.62944e-013	7.49947e-013	1.12392e-012	1.37235e-012	1.74648e-012	1.99487e-012	2.61751e-012	2.36933e-012	
FineR101	-3.29413e-012	-3.10755e-012	-2.67227e-012	-2.29904e-012	-2.29904e-012	-1.67722e-012	-1.49053e-012	-1.05527e-012	-4.33198e-013	-4.94805e-013	-2.46261e-013	1.27453e-013	3.7596e-013	8.11231e-013	9.98303e-013	1.18532e-012	1.62058e-012	1.80781e-012	2.43042e-012	2.43042e-012	2.61751e-012	
FineR102	-3.29433e-012	-2.85904e-012	-2.67269e-012	-2.23739e-012	-1.86408e-012	-1.86408e-012	-1.42879e-012	-1.05527e-012	-6.19993e-013	-4.33198e-013	2.08175e-015	1.88995e-013	3.7596e-013	9.98303e-013	9.98303e-013	1.43358e-012	1.80767e-012	2.05605e-012	2.24308e-012	2.43042e-012	2.8657e-012	
FineR103	-3.29433e-012	-2.79713e-012	-2.6104e-012	-2.23739e-012	-1.80215e-012	-1.6774e-012	-1.42879e-012	-8.06869e-013	-3.71627e-013	-1.84822e-013	2.50424e-013	1.88995e-013	6.24279e-013	1.05952e-012	1.2466e-012	1.43358e-012	1.80767e-012	2.05605e-012	2.05605e-012	2.67864e-012	2.8656e-012	
FineR104	-3.0458e-012	-2.79713e-012	-2.36194e-012	-2.23739e-012	-1.80215e-012	-1.61562e-012	-1.18037e-012	-8.0701e-013	-6.20143e-013	-1.84822e-013	2.50424e-013	4.37347e-013	8.72598e-013	8.72598e-013	1.05952e-012	1.49497e-012	1.86904e-012	2.30429e-012	2.30429e-012	2.67864e-012	2.67864e-012	
FineR105	-2.79726e-012	-2.79726e-012	-2.42417e-012	-1.98892e-012	-1.74035e-012	-1.36717e-012	-9.31949e-013	-9.93726e-013	-3.71708e-013	6.3553e-014	6.3553e-014	2.50424e-013	8.72598e-013	8.72598e-013	1.49489e-012	1.43346e-012	2.11731e-012	2.05595e-012	2.30429e-012	2.49161e-012	3.11429e-012	
FineR106	-2.98396e-012	-2.79726e-012	-2.36229e-012	-1.98922e-012	-1.55394e-012	-1.55394e-012	-9.32099e-013	-3.10133e-013	-1.23299e-013	6.35384e-014	4.98818e-013	4.98818e-013	8.72696e-013	1.30797e-012	1.49508e-012	1.68205e-012	1.86895e-012	2.30459e-012	2.49152e-012	2.73985e-012	3.11423e-012	
FineR107	-2.7354e-012	-2.36239e-012	-2.36239e-012	-1.7407e-012	-1.30546e-012	-1.36738e-012	-9.32099e-013	-7.45421e-013	-3.10133e-013	1.25109e-013	6.35384e-014	9.34167e-013	1.12106e-012	1.12106e-012	1.74342e-012	1.74342e-012	2.17866e-012	2.30452e-012	2.55287e-012	2.92719e-012	3.1755e-012	
FineR108	-2.73571e-012	-2.5491e-012	-2.11385e-012	-1.7407e-012	-1.49212e-012	-1.11889e-012	-6.83635e-013	-4.96947e-013	-6.1692e-014	1.25165e-013	3.11956e-013	7.47203e-013	1.12106e-012	1.12106e-012	1.5563e-012	1.9303e-012	2.17866e-012	2.55283e-012	2.80115e-012	2.74022e-012	3.1755e-012	
FineR109	-2.92197e-012	-2.5491e-012	-2.11385e-012	-1.92744e-012	-1.49218e-012	-8.70388e-013	-1.11889e-012	-4.96947e-013	-6.1692e-014	3.73582e-013	5.60374e-013	7.47203e-013	9.34167e-013	1.36942e-012	1.80487e-012	1.99176e-012	2.17866e-012	2.3659e-012	2.80115e-012	2.98851e-012	3.42376e-012	
FineR110	-2.48718e-012	-2.30053e-012	-2.11416e-012	-1.67889e-012	-1.05712e-012	-8.08588e-013	-8.70388e-013	-2.48474e-013	3.73563e-013	3.73563e-013	8.08791e-013	7.47296e-013	1.18256e-012	1.3696e-012	1.80487e-012	2.2401e-012	2.17896e-012	2.61422e-012	2.80154e-012	2.9885e-012	3.42424e-012	
FineR111	-2.48718e-012	-2.30086e-012	-1.86557e-012	-1.43033e-012	-1.24384e-012	-1.05712e-012	-4.35236e-013	-4.35236e-013	1.86772e-013	3.73563e-013	5.60444e-013	9.95723e-013	1.18255e-012	1.61801e-012	2.05324e-012	1.99203e-012	2.4273e-012	2.61458e-012	3.04986e-012	3.42424e-012	3.67254e-012	
FineR112	-2.42517e-012	-2.05224e-012	-1.80362e-012	-1.43053e-012	-1.24384e-012	-8.08701e-013	-6.2198e-013	-1.8673e-013	4.35255e-013	3.7361e-013	8.08903e-013	1.24415e-012	1.43116e-012	1.61801e-012	2.05353e-012	2.24041e-012	2.42764e-012	2.86294e-012	3.29818e-012	3.29818e-012	3.67254e-012	
FineR113	-2.23889e-012	-1.80362e-012	-1.80362e-012	-1.18194e-012	-1.18195e-012	-5.60161e-013	-3.73441e-013	0	4.35255e-013	6.22103e-013	1.05736e-012	8.08903e-013	1.67959e-012	1.43116e-012	2.05353e-012	2.48879e-012	2.48879e-012	3.11129e-012	3.11129e-012	3.29818e-012	3.67258e-012	
FineR114	-1.99024e-012	-1.99025e-012	-1.80362e-012	-1.18194e-012	-9.33391e-013	-8.08705e-013	-3.73441e-013	2.48516e-013	4.96966e-013	8.70595e-013	8.08908e-013	1.05736e-012	1.67959e-012	1.67959e-012	2.05353e-012	2.48879e-012	2.67603e-012	3.11129e-012	3.29865e-012	3.48564e-012	3.9214e-012	
FineR115	-2.17685e-012	-1.99024e-012	-1.80362e-012	-1.18194e-012	-9.33391e-013	-5.60133e-013	-1.24902e-013	6.17956e-014	2.48516e-013	6.8379e-013	8.70595e-013	1.4928e-012	1.74117e-012	1.86668e-012	2.30195e-012	2.30195e-012	2.73748e-012	2.92442e-012	3.54702e-012	3.54702e-012	4.16974e-012	
FineR116	-1.9282e-012	-1.74159e-012	-1.30661e-012	-1.12001e-012	-7.46806e-013	-7.46806e-013	-1.24906e-013	6.17956e-014	6.83847e-013	6.83847e-013	1.30602e-012	1.49302e-012	1.92832e-012	1.92823e-012	2.30228e-012	2.73757e-012	2.73757e-012	3.36014e-012	3.36014e-012	3.54702e-012	4.16974e-012	
FineR117	-1.92815e-012	-1.55521e-012	-1.30661e-012	-9.33459e-013	-4.98201e-013	-4.98201e-013	-1.24906e-013	1.23591e-013	4.97117e-013	9.32372e-013	1.30602e-012	1.55442e-012	1.74127e-012	1.92803e-012	2.11512e-012	2.73757e-012	2.73757e-012	3.17281e-012	3.36014e-012	3.54702e-012	4.04359e-012	
FineR118	-1.92815e-012	-1.4932e-012	-1.30661e-012	-1.11995e-012	-4.98201e-013	-4.98201e-013	-1.24906e-013	3.10344e-013	7.45577e-013	9.32372e-013	1.36768e-012	1.30602e-012	1.98974e-012	1.92832e-012	2.36357e-012	2.98599e-012	2.98599e-012	3.17281e-012	3.54711e-012	3.79539e-012	3.98237e-012	
FineR119	-1.92815e-012	-1.49293e-012	-1.30655e-012	-8.71326e-013	-4.98201e-013	-4.98201e-013	1.23676e-013	1.23676e-013	4.97117e-013	9.32372e-013	1.55452e-012	1.55452e-012	1.98974e-012	2.1768e-012	2.36357e-012	2.98599e-012	2.98599e-012	3.4212e-012	3.4212e-012	3.79539e-012	4.16985e-012	
FineR120	-1.67946e-012	-1.24454e-012	-1.30655e-012	-8.71326e-013	-4.36297e-013	-2.49596e-013	3.72258e-013	1.23676e-013	7.45675e-013	9.94102e-013	1.3678e-012	1.55452e-012	1.98974e-012	2.1768e-012	2.61201e-012	3.23441e-012	3.23441e-012	3.60854e-012	3.60854e-012	4.04375e-012	4.04375e-012	
MinCout:	0	FineR:	113	FineC:	127

