	CoarseC0	CoarseC10	CoarseC20	CoarseC30	CoarseC40	CoarseC50	CoarseC60	CoarseC70	CoarseC80	CoarseC90	CoarseC100	CoarseC110	CoarseC120	CoarseC130	CoarseC140	CoarseC150	CoarseC160	CoarseC170	CoarseC180	CoarseC190	CoarseC200	CoarseC210	CoarseC220	CoarseC230	CoarseC240	CoarseC250	
CoarseR0	-1.79986e-009	-1.78875e-009	-1.77265e-009	-1.75241e-009	-1.72874e-009	-1.70164e-009	-1.67151e-009	-1.63878e-009	-1.60386e-009	-1.56637e-009	-1.52549e-009	-1.47722e-009	-1.42535e-009	-1.37715e-009	-1.33189e-009	-1.28944e-009	-1.24979e-009	-1.21312e-009	-1.17808e-009	-1.14549e-009	-1.11506e-009	-1.08592e-009	-1.05935e-009	-1.03402e-009	-1.01055e-009	-9.88261e-010	
CoarseR10	-1.38098e-009	-1.36543e-009	-1.34679e-009	-1.32476e-009	-1.29999e-009	-1.27232e-009	-1.24177e-009	-1.20982e-009	-1.17429e-009	-1.13541e-009	-1.0886e-009	-1.03843e-009	-9.92317e-010	-9.49446e-010	-9.09106e-010	-8.71366e-010	-8.35348e-010	-8.0194e-010	-7.70527e-010	-7.4138e-010	-7.14271e-010	-6.88543e-010	-6.64685e-010	-6.4236e-010	-6.21045e-010	-6.01059e-010	
CoarseR20	-1.13016e-009	-1.11234e-009	-1.09244e-009	-1.06916e-009	-1.04366e-009	-1.01518e-009	-9.84126e-010	-9.50645e-010	-9.1348e-010	-8.68648e-010	-8.18818e-010	-7.73111e-010	-7.30961e-010	-6.9144e-010	-6.53927e-010	-6.18788e-010	-5.85303e-010	-5.55074e-010	-5.26162e-010	-4.99544e-010	-4.74674e-010	-4.51454e-010	-4.29221e-010	-4.088e-010	-3.89461e-010	-3.71143e-010	
CoarseR30	-9.61668e-010	-9.42783e-010	-9.21357e-010	-8.97076e-010	-8.70226e-010	-8.40594e-010	-8.08102e-010	-7.73412e-010	-7.31403e-010	-6.81682e-010	-6.35306e-010	-5.92311e-010	-5.52694e-010	-5.15409e-010	-4.79564e-010	-4.46413e-010	-4.15705e-010	-3.8716e-010	-3.60638e-010	-3.35702e-010	-3.12646e-010	-2.90676e-010	-2.70641e-010	-2.51554e-010	-2.3338e-010	-2.16568e-010	
CoarseR40	-8.40632e-010	-8.20244e-010	-7.97415e-010	-7.72044e-010	-7.43889e-010	-7.13045e-010	-6.79024e-010	-6.41804e-010	-5.92021e-010	-5.44513e-010	-5.00422e-010	-4.59634e-010	-4.21638e-010	-3.85467e-010	-3.51835e-010	-3.20388e-010	-2.91348e-010	-2.64654e-010	-2.39532e-010	-2.15993e-010	-1.94492e-010	-1.73934e-010	-1.55164e-010	-1.36925e-010	-1.20035e-010	-1.04356e-010	
CoarseR50	-7.49384e-010	-7.272e-010	-7.03112e-010	-6.76944e-010	-6.47148e-010	-6.15159e-010	-5.78868e-010	-5.34333e-010	-4.8485e-010	-4.38889e-010	-3.96927e-010	-3.57396e-010	-3.20208e-010	-2.85767e-010	-2.5367e-010	-2.23731e-010	-1.96235e-010	-1.70785e-010	-1.47053e-010	-1.24862e-010	-1.0417e-010	-8.45766e-011	-6.64915e-011	-4.96514e-011	-3.34435e-011	-1.87541e-011	
CoarseR60	-6.77798e-010	-6.53993e-010	-6.28847e-010	-6.00838e-010	-5.69751e-010	-5.36171e-010	-4.97586e-010	-4.46551e-010	-3.98828e-010	-3.55062e-010	-3.13901e-010	-2.75187e-010	-2.38926e-010	-2.06015e-010	-1.75207e-010	-1.47068e-010	-1.20082e-010	-9.61979e-011	-7.31771e-011	-5.16642e-011	-3.23418e-011	-1.36061e-011	3.61683e-012	1.97396e-011	3.50816e-011	4.93937e-011	
CoarseR70	-6.19678e-010	-5.94607e-010	-5.68003e-010	-5.38925e-010	-5.06283e-010	-4.70913e-010	-4.24842e-010	-3.74977e-010	-3.28478e-010	-2.8559e-010	-2.44906e-010	-2.07083e-010	-1.72525e-010	-1.40917e-010	-1.11189e-010	-8.37384e-011	-5.83135e-011	-3.48328e-011	-1.29248e-011	7.53641e-012	2.59672e-011	4.40468e-011	6.05868e-011	7.61456e-011	9.05324e-011	1.04206e-010	
CoarseR80	-5.71999e-010	-5.45046e-010	-5.17847e-010	-4.87261e-010	-4.53477e-010	-4.15812e-010	-3.6388e-010	-3.15492e-010	-2.69849e-010	-2.27405e-010	-1.87329e-010	-1.50716e-010	-1.16914e-010	-8.64195e-011	-5.80281e-011	-3.12158e-011	-6.60703e-012	1.60373e-011	3.73018e-011	5.69155e-011	7.49612e-011	9.19388e-011	1.08308e-010	1.22726e-010	1.3675e-010	1.4945e-010	
CoarseR90	-5.30322e-010	-5.02835e-010	-4.74149e-010	-4.42567e-010	-4.07015e-010	-3.64339e-010	-3.11615e-010	-2.63602e-010	-2.19125e-010	-1.76521e-010	-1.37546e-010	-1.01755e-010	-6.9114e-011	-3.94151e-011	-1.18357e-011	1.41721e-011	3.81549e-011	6.01751e-011	8.0621e-011	9.98069e-011	1.17266e-010	1.33846e-010	1.48885e-010	1.63363e-010	1.76742e-010	1.88813e-010	
CoarseR100	-4.94999e-010	-4.6603e-010	-4.36705e-010	-4.03434e-010	-3.6654e-010	-3.17793e-010	-2.65847e-010	-2.18986e-010	-1.7435e-010	-1.32177e-010	-9.42749e-011	-5.95409e-011	-2.79533e-011	1.59473e-012	2.86356e-011	5.35754e-011	7.6941e-011	9.81299e-011	1.18469e-010	1.36759e-010	1.53819e-010	1.69758e-010	1.84175e-010	1.98235e-010	2.1116e-010	2.22782e-010	
CoarseR110	-4.64954e-010	-4.34693e-010	-4.0382e-010	-3.69566e-010	-3.30729e-010	-2.77553e-010	-2.26027e-010	-1.7998e-010	-1.35042e-010	-9.41174e-011	-5.65349e-011	-2.26729e-011	8.11888e-012	3.67942e-011	6.34265e-011	8.78074e-011	1.10829e-010	1.31387e-010	1.51073e-010	1.68978e-010	1.85384e-010	2.01169e-010	2.14873e-010	2.28273e-010	2.40517e-010	2.51952e-010	
CoarseR120	-4.37777e-010	-4.06679e-010	-3.73972e-010	-3.38826e-010	-2.95713e-010	-2.41377e-010	-1.90668e-010	-1.44591e-010	-9.97212e-011	-5.94913e-011	-2.32261e-011	1.03059e-011	4.10555e-011	6.86506e-011	9.49422e-011	1.18705e-010	1.40886e-010	1.60785e-010	1.80305e-010	1.97605e-010	2.13808e-010	2.28654e-010	2.42661e-010	2.55357e-010	2.67369e-010	2.78349e-010	
CoarseR130	-4.13051e-010	-3.80747e-010	-3.47742e-010	-3.10526e-010	-2.62727e-010	-2.08656e-010	-1.58401e-010	-1.1194e-010	-6.77715e-011	-2.85846e-011	7.63979e-012	4.05861e-011	7.04539e-011	9.75022e-011	1.23242e-010	1.46351e-010	1.68366e-010	1.88089e-010	2.07019e-010	2.23562e-010	2.39349e-010	2.53973e-010	2.67326e-010	2.79764e-010	2.91338e-010	3.01549e-010	
CoarseR140	-3.91528e-010	-3.58335e-010	-3.24092e-010	-2.85323e-010	-2.32707e-010	-1.79572e-010	-1.29931e-010	-8.25196e-011	-3.96689e-011	-5.0455e-013	3.51417e-011	6.68132e-011	9.63332e-011	1.23526e-010	1.48619e-010	1.71355e-010	1.92708e-010	2.12329e-010	2.30272e-010	2.47158e-010	2.625e-010	2.76467e-010	2.89791e-010	3.01486e-010	3.1255e-010	3.22271e-010	
CoarseR150	-3.72029e-010	-3.36918e-010	-3.02002e-010	-2.61387e-010	-2.05864e-010	-1.52893e-010	-1.02889e-010	-5.62983e-011	-1.35568e-011	2.47129e-011	5.9772e-011	9.15608e-011	1.20582e-010	1.46906e-010	1.71834e-010	1.94394e-010	2.15612e-010	2.34536e-010	2.52066e-010	2.68484e-010	2.83618e-010	2.9706e-010	3.09412e-010	3.21398e-010	3.3169e-010	3.41384e-010	
CoarseR160	-3.53775e-010	-3.17873e-010	-2.81384e-010	-2.39217e-010	-1.81292e-010	-1.28614e-010	-7.79296e-011	-3.20477e-011	1.02183e-011	4.76866e-011	8.25973e-011	1.13372e-010	1.42385e-010	1.68549e-010	1.9263e-010	2.15052e-010	2.35777e-010	2.54544e-010	2.71869e-010	2.87625e-010	3.02481e-010	3.15965e-010	3.27765e-010	3.38974e-010	3.49223e-010	3.58184e-010	
CoarseR170	-3.36855e-010	-3.00304e-010	-2.63049e-010	-2.15974e-010	-1.58569e-010	-1.06169e-010	-5.55467e-011	-9.65189e-012	3.16605e-011	6.93207e-011	1.031e-010	1.34234e-010	1.62684e-010	1.88457e-010	2.12305e-010	2.34323e-010	2.54943e-010	2.73229e-010	2.90365e-010	3.05814e-010	3.2e-010	3.33182e-010	3.4476e-010	3.55419e-010	3.65408e-010	3.73732e-010	
CoarseR180	-3.21556e-010	-2.84326e-010	-2.45615e-010	-1.95331e-010	-1.38079e-010	-8.54512e-011	-3.47323e-011	1.08482e-011	5.17549e-011	8.88749e-011	1.22621e-010	1.53051e-010	1.81122e-010	2.06715e-010	2.30685e-010	2.51972e-010	2.72428e-010	2.89957e-010	3.07094e-010	3.22598e-010	3.36532e-010	3.48946e-010	3.60746e-010	3.70612e-010	3.80075e-010	3.88321e-010	
CoarseR190	-3.07013e-010	-2.69044e-010	-2.29107e-010	-1.75424e-010	-1.18293e-010	-6.56699e-011	-1.51249e-011	2.95055e-011	7.05342e-011	1.07081e-010	1.40525e-010	1.70782e-010	1.98451e-010	2.23639e-010	2.47236e-010	2.68522e-010	2.88221e-010	3.0632e-010	3.22713e-010	3.37707e-010	3.51592e-010	3.63746e-010	3.74979e-010	3.84567e-010	3.93698e-010	4.01112e-010	
CoarseR200	-2.93258e-010	-2.54905e-010	-2.13535e-010	-1.57078e-010	-1.00715e-010	-4.69612e-011	3.16499e-012	4.7682e-011	8.78202e-011	1.24607e-010	1.5726e-010	1.87459e-010	2.14724e-010	2.3975e-010	2.63031e-010	2.83915e-010	3.03382e-010	3.21271e-010	3.37418e-010	3.5219e-010	3.65738e-010	3.77621e-010	3.88605e-010	3.97823e-010	4.06377e-010	4.13403e-010	
CoarseR210	-2.80629e-010	-2.41225e-010	-1.99094e-010	-1.40363e-010	-8.37853e-011	-3.0163e-011	1.97789e-011	6.37726e-011	1.04445e-010	1.40173e-010	1.73054e-010	2.02706e-010	2.30024e-010	2.54619e-010	2.77716e-010	2.98912e-010	3.17849e-010	3.35496e-010	3.51312e-010	3.66083e-010	3.78634e-010	3.90752e-010	4.01133e-010	4.09995e-010	4.18187e-010	4.24668e-010	
CoarseR220	-2.69374e-010	-2.2856e-010	-1.85266e-010	-1.24511e-010	-6.79229e-011	-1.37283e-011	3.56637e-011	7.98118e-011	1.19305e-010	1.55099e-010	1.87505e-010	2.17352e-010	2.44242e-010	2.68872e-010	2.91516e-010	3.12511e-010	3.31448e-010	3.48511e-010	3.64422e-010	3.78583e-010	3.91041e-010	4.02878e-010	4.12645e-010	4.21226e-010	4.29018e-010	4.35438e-010	
CoarseR230	-2.57754e-010	-2.1677e-010	-1.7042e-010	-1.09662e-010	-5.30246e-011	1.52405e-012	5.04539e-011	9.3712e-011	1.33623e-010	1.69574e-010	2.01831e-010	2.30892e-010	2.57769e-010	2.82214e-010	3.04956e-010	3.25143e-010	3.44082e-010	3.60905e-010	3.767e-010	3.9037e-010	4.02868e-010	4.14091e-010	4.23968e-010	4.3224e-010	4.39477e-010	4.45179e-010	
CoarseR240	-2.47612e-010	-2.05356e-010	-1.57008e-010	-9.55925e-011	-3.8561e-011	1.5725e-011	6.41636e-011	1.07691e-010	1.47025e-010	1.82753e-010	2.14373e-010	2.4382e-010	2.705e-010	2.94914e-010	3.16842e-010	3.37291e-010	3.5607e-010	3.72618e-010	3.88149e-010	4.01926e-010	4.1406e-010	4.24992e-010	4.34067e-010	4.42181e-010	4.49021e-010	4.5441e-010	
CoarseR250	-2.37801e-010	-1.94391e-010	-1.4386e-010	-8.23635e-011	-2.54295e-011	2.87248e-011	7.74422e-011	1.20193e-010	1.5947e-010	1.94586e-010	2.26999e-010	2.55785e-010	2.82221e-010	3.06424e-010	3.28699e-010	3.48873e-010	3.67531e-010	3.83846e-010	3.99087e-010	4.12338e-010	4.24408e-010	4.34952e-010	4.43966e-010	4.51679e-010	4.57846e-010	4.62556e-010	
MinCout:	-5.0455e-013	CoarseR:	140	CoarseC:	90

	CoarseC130	CoarseC131	CoarseC132	CoarseC133	CoarseC134	CoarseC135	CoarseC136	CoarseC137	CoarseC138	CoarseC139	CoarseC140	CoarseC141	CoarseC142	CoarseC143	CoarseC144	CoarseC145	CoarseC146	CoarseC147	CoarseC148	CoarseC149	CoarseC150	
CoarseR80	-8.5964e-011	-8.31931e-011	-8.06173e-011	-7.73882e-011	-7.46249e-011	-7.1778e-011	-6.90119e-011	-6.62321e-011	-6.36502e-011	-6.03453e-011	-5.77619e-011	-5.50544e-011	-5.24684e-011	-4.94254e-011	-4.70921e-011	-4.45012e-011	-4.17086e-011	-3.8864e-011	-3.65267e-011	-3.37417e-011	-3.11445e-011	
CoarseR81	-8.14375e-011	-7.82221e-011	-7.56453e-011	-7.23464e-011	-6.96513e-011	-6.66173e-011	-6.40363e-011	-6.1e-011	-5.86053e-011	-5.5446e-011	-5.28609e-011	-4.98192e-011	-4.70317e-011	-4.44438e-011	-4.18531e-011	-3.92634e-011	-3.67359e-011	-3.41441e-011	-3.1803e-011	-2.92093e-011	-2.66756e-011	
CoarseR82	-7.65074e-011	-7.32903e-011	-7.0632e-011	-6.74124e-011	-6.46364e-011	-6.18688e-011	-5.90197e-011	-5.59824e-011	-5.33988e-011	-5.08822e-011	-4.78409e-011	-4.52541e-011	-4.24667e-011	-3.99433e-011	-3.70974e-011	-3.45708e-011	-3.19764e-011	-2.96389e-011	-2.70451e-011	-2.4257e-011	-2.16575e-011	
CoarseR83	-7.15338e-011	-6.87621e-011	-6.57301e-011	-6.26946e-011	-5.96602e-011	-5.71495e-011	-5.42997e-011	-5.15279e-011	-4.89434e-011	-4.61596e-011	-4.33065e-011	-4.03393e-011	-3.77417e-011	-3.49608e-011	-3.25598e-011	-2.97763e-011	-2.72473e-011	-2.46533e-011	-2.20556e-011	-1.93311e-011	-1.69247e-011	
CoarseR84	-6.67938e-011	-6.38331e-011	-6.1253e-011	-5.82184e-011	-5.51824e-011	-5.23326e-011	-4.98195e-011	-4.67796e-011	-4.41935e-011	-4.11512e-011	-3.86312e-011	-3.60419e-011	-3.29956e-011	-3.04705e-011	-2.78781e-011	-2.5285e-011	-2.24982e-011	-2.03507e-011	-1.75611e-011	-1.49568e-011	-1.26845e-011	
CoarseR85	-6.2094e-011	-5.9061e-011	-5.648e-011	-5.34445e-011	-5.04076e-011	-4.75571e-011	-4.50435e-011	-4.20027e-011	-3.94156e-011	-3.66379e-011	-3.38517e-011	-3.12615e-011	-2.84791e-011	-2.56885e-011	-2.30951e-011	-2.07569e-011	-1.81616e-011	-1.53718e-011	-1.30319e-011	-1.02391e-011	-7.897e-012	
CoarseR86	-5.75617e-011	-5.42605e-011	-5.16786e-011	-4.89027e-011	-4.58647e-011	-4.29017e-011	-4.02392e-011	-3.75328e-011	-3.51346e-011	-3.18996e-011	-2.95686e-011	-2.67121e-011	-2.39283e-011	-2.13294e-011	-1.85427e-011	-1.60184e-011	-1.36802e-011	-1.0819e-011	-8.48162e-012	-5.94531e-012	-3.53668e-012	
CoarseR87	-5.28002e-011	-4.97649e-011	-4.71816e-011	-4.42151e-011	-4.11756e-011	-3.83231e-011	-3.59981e-011	-3.29537e-011	-3.03653e-011	-2.73888e-011	-2.47972e-011	-2.22048e-011	-1.91553e-011	-1.66282e-011	-1.42242e-011	-1.14346e-011	-9.09639e-012	-6.30375e-012	-4.41853e-012	-1.62282e-012	9.78764e-013	
CoarseR88	-4.84651e-011	-4.5239e-011	-4.26506e-011	-3.96119e-011	-3.68376e-011	-3.37958e-011	-3.14688e-011	-2.84244e-011	-2.58339e-011	-2.3048e-011	-2.05288e-011	-1.76705e-011	-1.488e-011	-1.22843e-011	-9.75472e-012	-7.34905e-012	-4.55639e-012	-1.95677e-012	3.16236e-013	3.18097e-012	5.5241e-012	
CoarseR89	-4.39901e-011	-4.09523e-011	-3.81007e-011	-3.50606e-011	-3.25448e-011	-2.95019e-011	-2.6914e-011	-2.40583e-011	-2.15382e-011	-1.84898e-011	-1.61575e-011	-1.33707e-011	-1.07747e-011	-7.98213e-012	-5.38421e-012	-2.85478e-012	-4.44767e-013	2.35094e-012	4.69006e-012	7.22875e-012	9.63966e-012	
CoarseR90	-3.94089e-011	-3.63702e-011	-3.35959e-011	-3.08148e-011	-2.77718e-011	-2.5182e-011	-2.23994e-011	-1.98075e-011	-1.72158e-011	-1.39742e-011	-1.18335e-011	-9.04527e-012	-6.18453e-012	-3.65512e-012	-1.05607e-012	1.73817e-012	4.07976e-012	6.68204e-012	8.76159e-012	1.1562e-011	1.41705e-011	
CoarseR91	-3.51413e-011	-3.19086e-011	-2.95122e-011	-2.64696e-011	-2.34256e-011	-2.10985e-011	-1.85067e-011	-1.54589e-011	-1.29382e-011	-1.01502e-011	-7.55378e-012	-4.50013e-012	-2.16442e-012	6.28559e-013	3.03579e-012	5.5695e-012	8.36723e-012	1.07091e-011	1.33137e-011	1.59218e-011	1.80049e-011	
CoarseR92	-3.08474e-011	-2.80711e-011	-2.52165e-011	-2.21726e-011	-1.93921e-011	-1.67995e-011	-1.40159e-011	-1.14215e-011	-8.63472e-012	-6.03812e-012	-3.24828e-012	-4.56638e-013	2.14312e-012	4.93778e-012	7.34592e-012	9.88063e-012	1.24844e-011	1.48266e-011	1.71723e-011	1.97788e-011	2.2322e-011	
CoarseR93	-2.69829e-011	-2.37486e-011	-2.11619e-011	-1.81134e-011	-1.5332e-011	-1.25483e-011	-1.01464e-011	-7.09559e-012	-4.49912e-012	-1.71025e-012	1.08123e-012	3.68104e-012	6.28069e-012	8.8127e-012	1.13478e-011	1.3952e-011	1.65586e-011	1.89015e-011	2.15086e-011	2.40508e-011	2.62036e-011	
CoarseR94	-2.24492e-011	-1.94053e-011	-1.70803e-011	-1.40337e-011	-1.09856e-011	-8.46373e-012	-5.41271e-012	-3.00923e-012	-2.19443e-013	2.37767e-012	5.17055e-012	7.57749e-012	1.03028e-011	1.31007e-011	1.55107e-011	1.80473e-011	2.06538e-011	2.34578e-011	2.53458e-011	2.81509e-011	3.05002e-011	
CoarseR95	-1.8613e-011	-1.55679e-011	-1.29755e-011	-1.01945e-011	-6.95184e-012	-4.35831e-012	-1.49739e-012	8.3425e-013	3.62555e-012	6.41609e-012	9.01741e-012	1.18136e-011	1.46117e-011	1.67565e-011	1.93621e-011	2.21645e-011	2.45073e-011	2.70512e-011	2.92014e-011	3.20101e-011	3.4358e-011	
CoarseR96	-1.4298e-011	-1.12512e-011	-8.65731e-012	-5.87543e-012	-3.01527e-012	-2.27118e-013	2.56291e-012	5.15895e-012	7.75923e-012	1.05537e-011	1.30837e-011	1.56876e-011	1.84836e-011	2.10895e-011	2.3435e-011	2.57775e-011	2.8191e-011	3.0998e-011	3.33439e-011	3.61541e-011	3.85024e-011	
CoarseR97	-1.04119e-011	-7.4433e-012	-4.58364e-012	-1.72356e-012	1.06433e-012	3.58625e-012	6.44927e-012	9.24224e-012	1.13818e-011	1.43728e-011	1.67817e-011	1.97717e-011	2.23777e-011	2.49848e-011	2.73264e-011	2.99353e-011	3.24762e-011	3.48277e-011	3.7244e-011	3.97901e-011	4.24046e-011	
CoarseR98	-6.12938e-012	-3.26986e-012	-6.77603e-013	2.56866e-012	4.89846e-012	7.69e-012	1.00962e-011	1.30805e-011	1.54885e-011	1.82863e-011	2.08861e-011	2.3687e-011	2.62942e-011	2.8831e-011	3.14405e-011	3.37847e-011	3.63963e-011	3.89456e-011	4.10964e-011	4.37111e-011	4.60604e-011	
CoarseR99	-2.73824e-012	5.06728e-013	3.10064e-012	5.88835e-012	8.94353e-012	1.15446e-011	1.41442e-011	1.67413e-011	1.93453e-011	2.21445e-011	2.46771e-011	2.70889e-011	3.03509e-011	3.2431e-011	3.50423e-011	3.73866e-011	3.99995e-011	4.25442e-011	4.49624e-011	4.73178e-011	4.98674e-011	
CoarseR100	1.32188e-012	4.37417e-012	6.97318e-012	1.00282e-011	1.23592e-011	1.54171e-011	1.80204e-011	2.08182e-011	2.29586e-011	2.62179e-011	2.83674e-011	3.09028e-011	3.39708e-011	3.60519e-011	3.88615e-011	4.14752e-011	4.35617e-011	4.61792e-011	4.82679e-011	5.13463e-011	5.37055e-011	
MinCout:	-2.19443e-013	CoarseR:	94	CoarseC:	138

	FineC0	FineC10	FineC20	FineC30	FineC40	FineC50	FineC60	FineC70	FineC80	FineC90	FineC100	FineC110	FineC120	FineC130	FineC140	FineC150	FineC160	FineC170	FineC180	FineC190	FineC200	FineC210	FineC220	FineC230	FineC240	FineC250	
FineR0	-2.12306e-010	-1.79512e-010	-1.57396e-010	-1.40763e-010	-1.27111e-010	-1.16402e-010	-1.07073e-010	-9.93625e-011	-9.29173e-011	-8.75595e-011	-8.23959e-011	-7.80566e-011	-7.44356e-011	-7.08105e-011	-6.77622e-011	-6.49785e-011	-6.21924e-011	-6.0037e-011	-5.83494e-011	-5.62049e-011	-5.45145e-011	-5.27631e-011	-5.12604e-011	-5.01429e-011	-4.87143e-011	-4.71506e-011	
FineR10	-1.80056e-010	-1.47529e-010	-1.2613e-010	-1.09495e-010	-9.62685e-011	-8.55593e-011	-7.67482e-011	-6.92139e-011	-6.27615e-011	-5.71409e-011	-5.2416e-011	-4.81494e-011	-4.42577e-011	-4.08264e-011	-3.78401e-011	-3.505e-011	-3.26413e-011	-3.03032e-011	-2.8413e-011	-2.61995e-011	-2.47647e-011	-2.30054e-011	-2.17608e-011	-2.02664e-011	-1.89562e-011	-1.7653e-011	
FineR20	-1.65536e-010	-1.33273e-010	-1.12227e-010	-9.56624e-011	-8.24388e-011	-7.19117e-011	-6.30975e-011	-5.55557e-011	-4.91014e-011	-4.35553e-011	-3.85691e-011	-3.47491e-011	-3.04057e-011	-2.74214e-011	-2.46262e-011	-2.18337e-011	-1.90387e-011	-1.71504e-011	-1.51959e-011	-1.29802e-011	-1.15443e-011	-1.00435e-011	-8.08814e-012	-7.04224e-012	-5.7325e-012	-4.8817e-012	
FineR30	-1.5757e-010	-1.25578e-010	-1.04088e-010	-8.78842e-011	-7.47336e-011	-6.39403e-011	-5.49348e-011	-4.75807e-011	-4.1125e-011	-3.54997e-011	-3.10395e-011	-2.67685e-011	-2.2875e-011	-1.98906e-011	-1.66431e-011	-1.38495e-011	-1.15062e-011	-9.35843e-012	-7.20923e-012	-5.25179e-012	-3.55844e-012	-2.05531e-012	-8.16586e-013	7.51758e-013	1.79823e-012	2.84534e-012	
FineR40	-1.52385e-010	-1.19936e-010	-9.88919e-011	-8.25109e-011	-6.93588e-011	-5.90103e-011	-4.99316e-011	-4.2201e-011	-3.61981e-011	-3.08343e-011	-2.59221e-011	-2.17681e-011	-1.81394e-011	-1.45065e-011	-1.17144e-011	-8.91712e-012	-6.57762e-012	-4.16624e-012	-2.28002e-012	-3.2254e-013	1.37316e-012	2.87419e-012	4.37592e-012	5.42174e-012	6.99094e-012	8.03794e-012	
FineR50	-1.48498e-010	-1.16675e-010	-9.51852e-011	-7.92508e-011	-6.58311e-011	-5.511e-011	-4.60292e-011	-3.89405e-011	-3.24839e-011	-2.73846e-011	-2.23967e-011	-1.81242e-011	-1.44945e-011	-1.12458e-011	-7.9968e-012	-5.39485e-012	-3.12221e-012	-7.10339e-013	1.43966e-012	3.13264e-012	4.89759e-012	6.13581e-012	7.83402e-012	8.94578e-012	1.0447e-011	1.1494e-011	
FineR60	-1.45882e-010	-1.13701e-010	-9.26515e-011	-7.618e-011	-6.30278e-011	-5.2495e-011	-4.36777e-011	-3.63187e-011	-3.00559e-011	-2.43113e-011	-1.95876e-011	-1.56981e-011	-1.18049e-011	-8.43532e-012	-5.37864e-012	-2.84506e-012	-4.34818e-013	2.10196e-012	3.86334e-012	5.75183e-012	7.44801e-012	8.94918e-012	1.02569e-011	1.20204e-011	1.30668e-011	1.41138e-011	
FineR70	-1.43679e-010	-1.11851e-010	-9.06139e-011	-7.39658e-011	-6.08113e-011	-5.07255e-011	-4.18292e-011	-3.40971e-011	-2.78313e-011	-2.24664e-011	-1.75515e-011	-1.34707e-011	-1.00329e-011	-6.40062e-012	-3.60613e-012	-5.47073e-013	1.59991e-012	3.94332e-012	5.63645e-012	7.78792e-012	9.74579e-012	1.10526e-011	1.22919e-011	1.37943e-011	1.48407e-011	1.64112e-011	
FineR80	-1.4197e-010	-1.10143e-010	-8.89192e-011	-7.24458e-011	-5.92921e-011	-4.8942e-011	-3.99348e-011	-3.2845e-011	-2.63877e-011	-2.07596e-011	-1.60358e-011	-1.22173e-011	-8.061e-012	-4.88416e-012	-1.89676e-012	8.99255e-013	3.30953e-012	5.45809e-012	7.6081e-012	9.30295e-012	1.09992e-011	1.25002e-011	1.4002e-011	1.55044e-011	1.68124e-011	1.78594e-011	
FineR90	-1.40779e-010	-1.08511e-010	-8.773e-011	-7.12571e-011	-5.78378e-011	-4.75638e-011	-3.8482e-011	-3.13928e-011	-2.49359e-011	-1.95719e-011	-1.48482e-011	-1.07666e-011	-6.94491e-012	-3.50364e-012	-4.46695e-013	2.34925e-012	4.23393e-012	6.84061e-012	8.53283e-012	1.06845e-011	1.23808e-011	1.36876e-011	1.54512e-011	1.64968e-011	1.79998e-011	1.93085e-011	
FineR100	-1.39399e-010	-1.07575e-010	-8.65262e-011	-7.03245e-011	-5.69902e-011	-4.64492e-011	-3.75524e-011	-3.02717e-011	-2.40076e-011	-1.86441e-011	-1.36565e-011	-9.38396e-012	-5.75446e-012	-2.31381e-012	7.42691e-013	3.01252e-012	5.81095e-012	7.95995e-012	9.91642e-012	1.16115e-011	1.35683e-011	1.48748e-011	1.6114e-011	1.76837e-011	1.91219e-011	1.99712e-011	
FineR110	-1.38271e-010	-1.06718e-010	-8.52247e-011	-6.90206e-011	-5.58667e-011	-4.57819e-011	-3.66995e-011	-2.91531e-011	-2.31527e-011	-1.73324e-011	-1.26082e-011	-8.52631e-012	-4.63303e-012	-1.45598e-012	1.33806e-012	4.13434e-012	6.73831e-012	9.08239e-012	1.10374e-011	1.27325e-011	1.42325e-011	1.593e-011	1.74318e-011	1.87396e-011	1.97859e-011	2.10949e-011	
FineR120	-1.37684e-010	-1.05858e-010	-8.48115e-011	-6.81611e-011	-5.51898e-011	-4.49236e-011	-3.62923e-011	-2.85593e-011	-2.20261e-011	-1.69276e-011	-1.2204e-011	-7.66696e-012	-4.03733e-012	-3.33352e-013	2.19726e-012	4.99368e-012	7.33486e-012	9.48385e-012	1.16343e-011	1.33959e-011	1.50921e-011	1.65928e-011	1.80943e-011	1.9402e-011	2.0448e-011	2.14947e-011	
FineR130	-1.3691e-010	-1.04998e-010	-8.37636e-011	-6.80164e-011	-5.45971e-011	-4.40578e-011	-3.52416e-011	-2.76957e-011	-2.16956e-011	-1.60676e-011	-1.11515e-011	-7.33461e-012	-3.1773e-012	0	2.79374e-012	5.59001e-012	8.38879e-012	1.03426e-011	1.22988e-011	1.41879e-011	1.58843e-011	1.76475e-011	1.86923e-011	2.01946e-011	2.12408e-011	2.25499e-011	
FineR140	-1.36303e-010	-1.04393e-010	-8.31601e-011	-6.70457e-011	-5.39959e-011	-4.32729e-011	-3.44556e-011	-2.69088e-011	-2.10969e-011	-1.54692e-011	-1.101e-011	-6.47305e-012	-2.57983e-012	5.97225e-013	3.3907e-012	6.18682e-012	8.98545e-012	1.08716e-011	1.30909e-011	1.49803e-011	1.64804e-011	1.79813e-011	1.94853e-011	2.07257e-011	2.20988e-011	2.31455e-011	
FineR150	-1.35694e-010	-1.04057e-010	-8.3012e-011	-6.61747e-011	-5.34783e-011	-4.26714e-011	-3.41209e-011	-2.65742e-011	-2.05707e-011	-1.49427e-011	-1.00281e-011	-5.94599e-012	-2.24562e-012	1.12462e-012	4.18198e-012	6.71525e-012	9.31946e-012	1.14685e-011	1.3619e-011	1.53142e-011	1.70766e-011	1.85773e-011	1.98166e-011	2.13866e-011	2.24326e-011	2.34792e-011	
FineR160	-1.35083e-010	-1.03534e-010	-8.22189e-011	-6.60189e-011	-5.2686e-011	-4.23362e-011	-3.3595e-011	-2.62356e-011	-1.9971e-011	-1.4608e-011	-9.88453e-012	-5.34754e-012	-1.71807e-012	1.72241e-012	4.7099e-012	7.31177e-012	9.65377e-012	1.22594e-011	1.39532e-011	1.59089e-011	1.76052e-011	1.9106e-011	2.04128e-011	2.17207e-011	2.31592e-011	2.427e-011	
FineR170	-1.34834e-010	-1.02926e-010	-8.19635e-011	-6.54935e-011	-5.24275e-011	-4.181e-011	-3.31801e-011	-2.56351e-011	-1.94441e-011	-1.38163e-011	-9.16611e-012	-4.82013e-012	-1.19051e-012	2.05715e-012	5.04381e-012	7.64642e-012	1.0445e-011	1.23309e-011	1.44814e-011	1.59805e-011	1.76768e-011	1.94398e-011	2.09419e-011	2.22492e-011	2.32952e-011	2.46044e-011	
FineR180	-1.3431e-010	-1.02401e-010	-8.14384e-011	-6.49679e-011	-5.18172e-011	-4.14685e-011	-3.26535e-011	-2.53735e-011	-1.8917e-011	-1.3289e-011	-8.8297e-012	-4.29216e-012	-8.55434e-013	2.58504e-012	5.5718e-012	8.17452e-012	1.05155e-011	1.26637e-011	1.48139e-011	1.6509e-011	1.80088e-011	1.99691e-011	2.14705e-011	2.27779e-011	2.3824e-011	2.48677e-011	
FineR190	-1.33952e-010	-1.02148e-010	-8.13702e-011	-6.47103e-011	-5.15578e-011	-4.12083e-011	-3.21266e-011	-2.48464e-011	-1.83897e-011	-1.32906e-011	-8.30206e-012	-4.41323e-012	-3.27447e-013	3.11312e-012	5.64335e-012	8.43991e-012	1.1044e-011	1.3125e-011	1.508e-011	1.70376e-011	1.87341e-011	2.02357e-011	2.17399e-011	2.29805e-011	2.42896e-011	2.54035e-011	
FineR200	-1.33552e-010	-1.01721e-010	-8.06687e-011	-6.42812e-011	-5.13061e-011	-4.07693e-011	-3.19494e-011	-2.45916e-011	-1.81323e-011	-1.30313e-011	-8.04079e-012	-3.76555e-012	-1.3402e-013	3.30829e-012	6.10362e-012	8.63782e-012	1.12432e-011	1.33932e-011	1.55446e-011	1.75031e-011	1.90037e-011	2.0505e-011	2.22043e-011	2.35132e-011	2.4624e-011	2.58691e-011	
FineR210	-1.33302e-010	-1.01209e-010	-8.02346e-011	-6.42034e-011	-5.10464e-011	-4.05087e-011	-3.16835e-011	-2.45913e-011	-1.81321e-011	-1.25016e-011	-7.77581e-012	-3.50075e-012	1.30632e-013	3.64337e-012	6.56212e-012	9.1658e-012	1.13134e-011	1.39214e-011	1.58104e-011	1.77671e-011	1.92676e-011	2.07712e-011	2.22733e-011	2.33192e-011	2.50855e-011	2.61327e-011	
FineR220	-1.32942e-010	-1.0121e-010	-8.01544e-011	-6.36764e-011	-5.07867e-011	-4.02423e-011	-3.11561e-011	-2.36068e-011	-1.76042e-011	-1.22364e-011	-7.51217e-012	-3.42876e-012	4.66416e-013	3.64398e-012	6.89619e-012	9.23571e-012	1.20357e-011	1.41856e-011	1.61428e-011	1.78367e-011	1.95337e-011	2.10351e-011	2.28028e-011	2.40436e-011	2.51543e-011	2.62014e-011	
FineR230	-1.32505e-010	-1.00858e-010	-7.98864e-011	-6.34091e-011	-5.02525e-011	-3.98997e-011	-3.1081e-011	-2.37981e-011	-1.75282e-011	-1.19731e-011	-6.9829e-012	-2.89994e-012	7.3063e-013	3.97862e-012	6.96595e-012	9.76311e-012	1.19109e-011	1.42558e-011	1.6211e-011	1.83632e-011	1.98634e-011	2.15613e-011	2.28658e-011	2.41733e-011	2.52194e-011	2.65289e-011	
FineR240	-1.324e-010	-1.00844e-010	-7.9525e-011	-6.33213e-011	-4.9901e-011	-3.95514e-011	-3.07311e-011	-2.34548e-011	-1.71869e-011	-1.20886e-011	-7.10061e-012	-2.82756e-012	8.02071e-013	4.50663e-012	7.23054e-012	1.00959e-011	1.23685e-011	1.45848e-011	1.64726e-011	1.84301e-011	1.99299e-011	2.16273e-011	2.29341e-011	2.44372e-011	2.54832e-011	2.67917e-011	
FineR250	-1.32295e-010	-1.0049e-010	-7.92568e-011	-6.27856e-011	-4.99011e-011	-3.9285e-011	-3.07309e-011	-2.33771e-011	-1.69217e-011	-1.18237e-011	-6.57138e-012	-2.29876e-012	1.33048e-012	4.50732e-012	7.49442e-012	1.00968e-011	1.27017e-011	1.48507e-011	1.70011e-011	1.86943e-011	2.03907e-011	2.16968e-011	2.31981e-011	2.49659e-011	2.58141e-011	2.70556e-011	
MinCout:	0	FineR:	130	FineC:	130

	FineC120	FineC121	FineC122	FineC123	FineC124	FineC125	FineC126	FineC127	FineC128	FineC129	FineC130	FineC131	FineC132	FineC133	FineC134	FineC135	FineC136	FineC137	FineC138	FineC139	FineC140	
FineR120	-4.03733e-012	-3.65181e-012	-3.38816e-012	-2.73884e-012	-2.54564e-012	-2.35279e-012	-1.89615e-012	-1.70317e-012	-1.24652e-012	-1.05322e-012	-5.96635e-013	-4.03422e-013	-2.10137e-013	2.4652e-013	6.3337e-013	6.3337e-013	1.09002e-012	1.28362e-012	1.74028e-012	2.00352e-012	2.12753e-012	
FineR121	-4.30102e-012	-3.84479e-012	-3.19549e-012	-2.93157e-012	-2.73884e-012	-2.28225e-012	-2.08939e-012	-1.89615e-012	-1.24652e-012	-9.83082e-013	-5.96752e-013	-1.4014e-013	-2.10137e-013	2.4652e-013	5.09858e-013	8.96602e-013	1.09015e-012	1.54682e-012	2.00378e-012	2.19718e-012	1.934e-012	
FineR122	-4.03796e-012	-3.58131e-012	-2.93203e-012	-2.93203e-012	-2.28261e-012	-2.28261e-012	-1.89646e-012	-1.89646e-012	-1.05356e-012	-7.9006e-013	-5.26635e-013	-4.03514e-013	5.31562e-014	2.46525e-013	7.03204e-013	7.03204e-013	1.35339e-012	1.61668e-012	1.7405e-012	2.19718e-012	2.19718e-012	
FineR123	-3.77443e-012	-3.31782e-012	-3.38869e-012	-2.93203e-012	-2.47569e-012	-2.28261e-012	-1.63305e-012	-1.63294e-012	-9.83345e-013	-7.9006e-013	-5.96869e-013	-1.40186e-013	3.16449e-013	5.09829e-013	9.66472e-013	1.16005e-012	1.35339e-012	1.61668e-012	2.00372e-012	2.26697e-012	2.65419e-012	
FineR124	-4.03813e-012	-3.31782e-012	-3.12519e-012	-2.66856e-012	-2.47569e-012	-2.28261e-012	-1.82618e-012	-1.63305e-012	-9.83345e-013	-9.83345e-013	-3.33505e-013	1.23143e-013	5.31356e-014	5.09829e-013	9.66472e-013	1.15998e-012	1.42329e-012	1.35339e-012	2.00372e-012	2.00372e-012	2.65419e-012	
FineR125	-3.96754e-012	-3.31832e-012	-3.12519e-012	-2.93248e-012	-2.4758e-012	-2.01917e-012	-1.82627e-012	-1.36963e-012	-7.19956e-013	-9.83345e-013	-3.33505e-013	-7.00928e-014	3.16476e-013	7.73133e-013	7.73178e-013	1.15998e-012	1.61664e-012	1.61664e-012	2.07355e-012	2.46071e-012	2.72394e-012	
FineR126	-3.96754e-012	-3.31832e-012	-2.86169e-012	-2.66897e-012	-2.4758e-012	-1.75573e-012	-1.82627e-012	-1.36963e-012	-7.19956e-013	-7.19956e-013	-7.01401e-014	-7.01401e-014	5.79816e-013	5.09747e-013	9.66596e-013	1.42326e-012	1.42326e-012	1.87988e-012	2.07355e-012	2.26694e-012	2.46071e-012	
FineR127	-3.70398e-012	-3.05479e-012	-3.05479e-012	-2.59819e-012	-2.21233e-012	-1.75573e-012	-1.56282e-012	-1.10622e-012	-7.19956e-013	-7.19956e-013	-7.01401e-014	1.93236e-013	5.79816e-013	8.43153e-013	7.73133e-013	1.42326e-012	1.42326e-012	2.07353e-012	2.07353e-012	2.53016e-012	2.98714e-012	
FineR128	-3.44042e-012	-3.05479e-012	-3.05479e-012	-2.40546e-012	-1.94885e-012	-1.75599e-012	-1.56282e-012	-1.36985e-012	-6.49744e-013	-2.63401e-013	-2.63401e-013	3.86521e-013	3.86544e-013	1.03658e-012	1.29991e-012	1.22991e-012	1.88015e-012	2.14341e-012	2.33679e-012	2.26725e-012	2.72394e-012	
FineR129	-3.24787e-012	-3.24787e-012	-2.86212e-012	-2.14195e-012	-2.21266e-012	-1.75599e-012	-1.49249e-012	-1.10639e-012	-4.56638e-013	-1.93213e-013	-2.63401e-013	3.86521e-013	3.86521e-013	8.43156e-013	1.29991e-012	1.22991e-012	1.88015e-012	1.88015e-012	2.33679e-012	2.53052e-012	2.79374e-012	
FineR130	-3.44092e-012	-3.24787e-012	-2.59857e-012	-2.14195e-012	-2.14195e-012	-1.49251e-012	-1.75599e-012	-1.10639e-012	-6.49757e-013	-4.56638e-013	0	4.56636e-013	3.86521e-013	8.43156e-013	1.29991e-012	1.49323e-012	1.68678e-012	1.88015e-012	2.33679e-012	2.53052e-012	2.79374e-012	
FineR131	-3.44092e-012	-2.9843e-012	-2.33503e-012	-2.59857e-012	-2.14195e-012	-1.68562e-012	-1.49251e-012	-8.42925e-013	-1.93202e-013	-4.56638e-013	0	4.56636e-013	6.49897e-013	8.43277e-013	1.03658e-012	1.49323e-012	1.95007e-012	2.14344e-012	2.60037e-012	2.79379e-012	2.98761e-012	
FineR132	-3.44092e-012	-2.9843e-012	-2.79166e-012	-2.33503e-012	-1.87871e-012	-1.68562e-012	-1.29957e-012	-8.42925e-013	-3.86404e-013	-1.93202e-013	2.63401e-013	1.93249e-013	6.49897e-013	8.43277e-013	1.29993e-012	1.49344e-012	1.95011e-012	2.40702e-012	2.60043e-012	2.79379e-012	3.25088e-012	
FineR133	-3.17732e-012	-2.98473e-012	-2.52808e-012	-1.87871e-012	-2.14227e-012	-1.68562e-012	-1.03607e-012	-1.03607e-012	-3.86381e-013	-1.93202e-013	0	4.56661e-013	9.13368e-013	1.10666e-012	1.56329e-012	1.75681e-012	2.21344e-012	2.21336e-012	2.60043e-012	2.86364e-012	3.25088e-012	
FineR134	-3.17732e-012	-2.52808e-012	-2.52808e-012	-1.87871e-012	-1.87871e-012	-1.4221e-012	-1.22919e-012	-1.03607e-012	-3.86381e-013	-1.93202e-013	2.63448e-013	4.56661e-013	6.49994e-013	1.10666e-012	1.56346e-012	1.75681e-012	2.02008e-012	2.40709e-012	2.40702e-012	2.86364e-012	3.05743e-012	
FineR135	-2.91371e-012	-2.72111e-012	-2.2645e-012	-2.07177e-012	-1.87871e-012	-1.22919e-012	-9.65716e-013	-7.72573e-013	-1.22909e-013	-1.93227e-013	2.63448e-013	5.26824e-013	9.13417e-013	1.37005e-012	1.36998e-012	1.75681e-012	2.02017e-012	2.40709e-012	2.86373e-012	3.05751e-012	3.32071e-012	
FineR136	-3.10667e-012	-2.72111e-012	-2.2645e-012	-2.07177e-012	-1.61515e-012	-1.42232e-012	-1.22919e-012	-5.79538e-013	-1.22909e-013	7.02573e-014	5.26896e-013	5.26896e-013	1.17684e-012	9.13417e-013	1.56353e-012	1.82683e-012	2.21377e-012	2.47704e-012	2.67043e-012	3.05751e-012	3.05751e-012	
FineR137	-2.91412e-012	-2.45749e-012	-2.52809e-012	-2.07177e-012	-1.61515e-012	-1.42229e-012	-9.65659e-013	-5.09208e-013	-3.16029e-013	7.02573e-014	3.33658e-013	7.20192e-013	9.83555e-013	1.17684e-012	1.82692e-012	1.56353e-012	2.21377e-012	2.47704e-012	2.67043e-012	3.12739e-012	3.32082e-012	
FineR138	-2.65047e-012	-2.91412e-012	-2.26482e-012	-1.80818e-012	-1.54468e-012	-1.15872e-012	-9.65659e-013	-3.16029e-013	-5.26266e-014	3.33741e-013	3.33658e-013	7.20192e-013	1.17684e-012	1.37027e-012	1.82692e-012	1.82692e-012	2.47715e-012	2.21377e-012	2.67043e-012	2.86416e-012	3.32082e-012	
FineR139	-2.91412e-012	-2.65047e-012	-2.26482e-012	-1.80818e-012	-1.61537e-012	-1.15872e-012	-7.02126e-013	-7.72671e-013	-3.16029e-013	3.33741e-013	3.33741e-013	9.83652e-013	9.83652e-013	1.6337e-012	1.89699e-012	2.02048e-012	2.28353e-012	2.47715e-012	2.93408e-012	3.12751e-012	3.12739e-012	
FineR140	-2.9141e-012	-2.65047e-012	-2.00119e-012	-1.73766e-012	-1.35176e-012	-1.15872e-012	-1.15872e-012	-5.09127e-013	-5.26059e-014	1.40609e-013	3.33741e-013	9.83652e-013	9.83652e-013	1.6337e-012	1.6337e-012	2.28389e-012	2.28389e-012	2.74052e-012	2.93408e-012	3.12751e-012	3.58454e-012	
MinCout:	0	FineR:	130	FineC:	130

