	CoarseC0	CoarseC10	CoarseC20	CoarseC30	CoarseC40	CoarseC50	CoarseC60	CoarseC70	CoarseC80	CoarseC90	CoarseC100	CoarseC110	CoarseC120	CoarseC130	CoarseC140	CoarseC150	CoarseC160	CoarseC170	CoarseC180	CoarseC190	CoarseC200	CoarseC210	CoarseC220	CoarseC230	CoarseC240	CoarseC250	
CoarseR0	-1.90184e-009	-1.88961e-009	-1.87197e-009	-1.85093e-009	-1.82551e-009	-1.79806e-009	-1.76683e-009	-1.73307e-009	-1.6975e-009	-1.65868e-009	-1.61613e-009	-1.56596e-009	-1.51367e-009	-1.46476e-009	-1.41937e-009	-1.37726e-009	-1.337e-009	-1.29949e-009	-1.26391e-009	-1.23067e-009	-1.19946e-009	-1.16995e-009	-1.14284e-009	-1.11654e-009	-1.09263e-009	-1.06952e-009	
CoarseR10	-1.45775e-009	-1.44099e-009	-1.4214e-009	-1.39799e-009	-1.37173e-009	-1.34334e-009	-1.31225e-009	-1.27883e-009	-1.24216e-009	-1.20239e-009	-1.1537e-009	-1.10311e-009	-1.05666e-009	-1.01351e-009	-9.72653e-010	-9.34701e-010	-8.98558e-010	-8.64347e-010	-8.32588e-010	-8.03258e-010	-7.74989e-010	-7.48811e-010	-7.24572e-010	-7.01272e-010	-6.79542e-010	-6.59108e-010	
CoarseR20	-1.19035e-009	-1.17164e-009	-1.15081e-009	-1.12624e-009	-1.09922e-009	-1.06976e-009	-1.03792e-009	-1.00386e-009	-9.66175e-010	-9.19855e-010	-8.6951e-010	-8.23504e-010	-7.80915e-010	-7.40887e-010	-7.03248e-010	-6.67893e-010	-6.33995e-010	-6.02968e-010	-5.74106e-010	-5.46913e-010	-5.21237e-010	-4.97466e-010	-4.74901e-010	-4.53704e-010	-4.34044e-010	-4.1503e-010	
CoarseR30	-1.01139e-009	-9.91002e-010	-9.68309e-010	-9.43729e-010	-9.15635e-010	-8.85709e-010	-8.52651e-010	-8.16237e-010	-7.73779e-010	-7.23636e-010	-6.77035e-010	-6.33721e-010	-5.93461e-010	-5.55613e-010	-5.19509e-010	-4.86401e-010	-4.55573e-010	-4.26266e-010	-3.99526e-010	-3.74217e-010	-3.50268e-010	-3.28141e-010	-3.0709e-010	-2.87548e-010	-2.69183e-010	-2.51405e-010	
CoarseR40	-8.82395e-010	-8.61069e-010	-8.37144e-010	-8.10812e-010	-7.81982e-010	-7.50305e-010	-7.16264e-010	-6.77455e-010	-6.27713e-010	-5.79972e-010	-5.35623e-010	-4.94474e-010	-4.56047e-010	-4.19587e-010	-3.85705e-010	-3.54297e-010	-3.24981e-010	-2.97652e-010	-2.72005e-010	-2.48568e-010	-2.25973e-010	-2.04972e-010	-1.85214e-010	-1.66776e-010	-1.49913e-010	-1.33179e-010	
CoarseR50	-7.85152e-010	-7.61502e-010	-7.36733e-010	-7.09813e-010	-6.79074e-010	-6.46703e-010	-6.10465e-010	-5.64205e-010	-5.14952e-010	-4.69253e-010	-4.26819e-010	-3.86815e-010	-3.49251e-010	-3.14379e-010	-2.82233e-010	-2.52571e-010	-2.24445e-010	-1.9864e-010	-1.74447e-010	-1.51995e-010	-1.30869e-010	-1.10591e-010	-9.18783e-011	-7.44315e-011	-5.82854e-011	-4.27471e-011	
CoarseR60	-7.08243e-010	-6.83392e-010	-6.57963e-010	-6.29369e-010	-5.97446e-010	-5.63066e-010	-5.24221e-010	-4.72958e-010	-4.25552e-010	-3.81334e-010	-3.39624e-010	-3.00333e-010	-2.64282e-010	-2.31241e-010	-2.00089e-010	-1.71916e-010	-1.44831e-010	-1.20233e-010	-9.67864e-011	-7.55217e-011	-5.51133e-011	-3.62225e-011	-1.83963e-011	-1.60923e-012	1.40962e-011	2.89348e-011	
CoarseR70	-6.46328e-010	-6.2025e-010	-5.93528e-010	-5.63262e-010	-5.30559e-010	-4.94414e-010	-4.48353e-010	-3.9799e-010	-3.5208e-010	-3.08757e-010	-2.67721e-010	-2.29441e-010	-1.94876e-010	-1.62767e-010	-1.32995e-010	-1.05734e-010	-7.98207e-011	-5.59804e-011	-3.37966e-011	-1.32193e-011	6.56088e-012	2.45522e-011	4.19685e-011	5.78469e-011	7.28347e-011	8.65982e-011	
CoarseR80	-5.95015e-010	-5.68211e-010	-5.39652e-010	-5.08473e-010	-4.73905e-010	-4.35581e-010	-3.84248e-010	-3.35409e-010	-2.90116e-010	-2.47342e-010	-2.07147e-010	-1.70037e-010	-1.36634e-010	-1.05401e-010	-7.69561e-011	-5.03537e-011	-2.56036e-011	-2.30365e-012	1.87433e-011	3.89314e-011	5.7789e-011	7.53772e-011	9.16712e-011	1.071e-010	1.21497e-010	1.35034e-010	
CoarseR90	-5.51024e-010	-5.22835e-010	-4.93532e-010	-4.61282e-010	-4.24923e-010	-3.81405e-010	-3.29544e-010	-2.81137e-010	-2.37185e-010	-1.94294e-010	-1.55244e-010	-1.19242e-010	-8.69585e-011	-5.63753e-011	-2.87559e-011	-2.99595e-012	2.14346e-011	4.36313e-011	6.44943e-011	8.3361e-011	1.02291e-010	1.19007e-010	1.34857e-010	1.49664e-010	1.63393e-010	1.7622e-010	
CoarseR100	-5.13473e-010	-4.8403e-010	-4.53976e-010	-4.20049e-010	-3.82735e-010	-3.33076e-010	-2.82203e-010	-2.35159e-010	-1.90299e-010	-1.48637e-010	-1.09969e-010	-7.55165e-011	-4.34204e-011	-1.41088e-011	1.30673e-011	3.79974e-011	6.13367e-011	8.33499e-011	1.03371e-010	1.22533e-010	1.4039e-010	1.56459e-010	1.71922e-010	1.86046e-010	1.99088e-010	2.11746e-010	
CoarseR110	-4.81666e-010	-4.50675e-010	-4.19491e-010	-3.84115e-010	-3.4405e-010	-2.90936e-010	-2.40824e-010	-1.94013e-010	-1.4932e-010	-1.0838e-010	-7.08911e-011	-3.6785e-011	-5.77066e-012	2.29088e-011	4.95268e-011	7.38257e-011	9.69923e-011	1.17899e-010	1.37788e-010	1.56295e-010	1.73242e-010	1.89357e-010	2.04158e-010	2.17853e-010	2.30495e-010	2.42472e-010	
CoarseR120	-4.5276e-010	-4.20327e-010	-3.88234e-010	-3.51508e-010	-3.06708e-010	-2.53154e-010	-2.03565e-010	-1.56696e-010	-1.12554e-010	-7.27917e-011	-3.61053e-011	-2.34866e-012	2.80529e-011	5.61184e-011	8.21018e-011	1.06247e-010	1.28574e-010	1.49362e-010	1.68588e-010	1.86491e-010	2.0275e-010	2.18234e-010	2.32564e-010	2.46296e-010	2.58434e-010	2.69928e-010	
CoarseR130	-4.26466e-010	-3.93704e-010	-3.60364e-010	-3.22155e-010	-2.72497e-010	-2.19483e-010	-1.70417e-010	-1.23022e-010	-7.94359e-011	-4.04704e-011	-4.58612e-012	2.85665e-011	5.81542e-011	8.61289e-011	1.11481e-010	1.35026e-010	1.5718e-010	1.77318e-010	1.96361e-010	2.13556e-010	2.29897e-010	2.44911e-010	2.58564e-010	2.71576e-010	2.83531e-010	2.94283e-010	
CoarseR140	-4.03395e-010	-3.69686e-010	-3.34139e-010	-2.95137e-010	-2.41594e-010	-1.88915e-010	-1.40041e-010	-9.23438e-011	-5.00016e-011	-1.11957e-011	2.40811e-011	5.66295e-011	8.59241e-011	1.12981e-010	1.37959e-010	1.60865e-010	1.82891e-010	2.02818e-010	2.21168e-010	2.38236e-010	2.5412e-010	2.68411e-010	2.81843e-010	2.94418e-010	3.05815e-010	3.16363e-010	
CoarseR150	-3.82331e-010	-3.47518e-010	-3.10968e-010	-2.70402e-010	-2.13416e-010	-1.61396e-010	-1.11723e-010	-6.54166e-011	-2.31956e-011	1.50128e-011	4.97525e-011	8.19599e-011	1.10528e-010	1.37517e-010	1.61876e-010	1.84609e-010	2.06031e-010	2.25548e-010	2.43703e-010	2.60308e-010	2.75697e-010	2.90028e-010	3.03251e-010	3.15316e-010	3.26007e-010	3.36504e-010	
CoarseR160	-3.63204e-010	-3.27329e-010	-2.89432e-010	-2.44647e-010	-1.87562e-010	-1.3589e-010	-8.59512e-011	-3.98374e-011	1.46831e-012	3.93446e-011	7.34692e-011	1.05122e-010	1.33622e-010	1.60137e-010	1.84357e-010	2.06957e-010	2.27599e-010	2.46702e-010	2.64468e-010	2.8057e-010	2.96054e-010	3.09872e-010	3.2233e-010	3.34126e-010	3.44529e-010	3.54554e-010	
CoarseR170	-3.44934e-010	-3.07943e-010	-2.69206e-010	-2.20833e-010	-1.63779e-010	-1.12255e-010	-6.20459e-011	-1.66521e-011	2.44476e-011	6.1506e-011	9.56726e-011	1.26658e-010	1.5479e-010	1.81019e-010	2.05007e-010	2.26899e-010	2.47422e-010	2.66359e-010	2.83614e-010	2.99483e-010	3.14482e-010	3.28079e-010	3.40547e-010	3.518e-010	3.61948e-010	3.71125e-010	
CoarseR180	-3.28544e-010	-2.9014e-010	-2.50708e-010	-1.98868e-010	-1.41981e-010	-9.01786e-011	-4.01044e-011	4.84188e-012	4.53299e-011	8.20387e-011	1.15637e-010	1.46762e-010	1.74714e-010	2.0024e-010	2.23822e-010	2.45553e-010	2.65651e-010	2.84547e-010	3.01351e-010	3.16787e-010	3.31776e-010	3.44614e-010	3.56832e-010	3.67777e-010	3.77917e-010	3.86816e-010	
CoarseR190	-3.13007e-010	-2.73538e-010	-2.33096e-010	-1.7804e-010	-1.21643e-010	-6.88075e-011	-1.95338e-011	2.47091e-011	6.50214e-011	1.01366e-010	1.34783e-010	1.65532e-010	1.93091e-010	2.18208e-010	2.41584e-010	2.63108e-010	2.82713e-010	3.00936e-010	3.17764e-010	3.33459e-010	3.47916e-010	3.60503e-010	3.72166e-010	3.82589e-010	3.92179e-010	4.00746e-010	
CoarseR200	-2.98479e-010	-2.58144e-010	-2.16074e-010	-1.585e-010	-1.02404e-010	-4.95486e-011	-4.57131e-013	4.36387e-011	8.31147e-011	1.19609e-010	1.52646e-010	1.82678e-010	2.09617e-010	2.34789e-010	2.58275e-010	2.79298e-010	2.98676e-010	3.17245e-010	3.336e-010	3.48496e-010	3.62957e-010	3.74974e-010	3.86312e-010	3.96712e-010	4.05683e-010	4.13982e-010	
CoarseR210	-2.84959e-010	-2.43918e-010	-2.00608e-010	-1.40551e-010	-8.47911e-011	-3.15594e-011	1.72511e-011	6.05052e-011	1.00275e-010	1.36185e-010	1.68683e-010	1.98508e-010	2.2572e-010	2.50468e-010	2.73715e-010	2.94572e-010	3.13976e-010	3.31746e-010	3.48142e-010	3.63037e-010	3.76673e-010	3.88668e-010	3.99987e-010	4.10106e-010	4.18494e-010	4.26151e-010	
CoarseR220	-2.71904e-010	-2.30033e-010	-1.84519e-010	-1.23954e-010	-6.78273e-011	-1.43529e-011	3.36225e-011	7.71383e-011	1.16251e-010	1.5196e-010	1.84542e-010	2.14073e-010	2.40849e-010	2.65636e-010	2.8817e-010	3.09084e-010	3.28492e-010	3.45693e-010	3.61739e-010	3.76132e-010	3.89526e-010	4.01504e-010	4.12192e-010	4.21983e-010	4.30298e-010	4.3736e-010	
CoarseR230	-2.60421e-010	-2.17095e-010	-1.68819e-010	-1.08129e-010	-5.14908e-011	1.63021e-012	4.93934e-011	9.24202e-011	1.3142e-010	1.66454e-010	1.99091e-010	2.28466e-010	2.55021e-010	2.79573e-010	3.01686e-010	3.22584e-010	3.41771e-010	3.59064e-010	3.74513e-010	3.89379e-010	4.01918e-010	4.1361e-010	4.24029e-010	4.3375e-010	4.41455e-010	4.47866e-010	
CoarseR240	-2.48956e-010	-2.04813e-010	-1.53654e-010	-9.31961e-011	-3.62248e-011	1.64651e-011	6.41405e-011	1.06955e-010	1.45428e-010	1.80323e-010	2.12533e-010	2.41892e-010	2.68261e-010	2.9284e-010	3.15044e-010	3.35499e-010	3.54089e-010	3.71605e-010	3.8713e-010	4.00908e-010	4.13895e-010	4.25299e-010	4.35345e-010	4.44433e-010	4.51753e-010	4.5836e-010	
CoarseR250	-2.38747e-010	-1.93559e-010	-1.39522e-010	-7.94314e-011	-2.18841e-011	3.05321e-011	7.75322e-011	1.20308e-010	1.58643e-010	1.93654e-010	2.25626e-010	2.54799e-010	2.80928e-010	3.04817e-010	3.27513e-010	3.47358e-010	3.66051e-010	3.82956e-010	3.98462e-010	4.12444e-010	4.24913e-010	4.35944e-010	4.4568e-010	4.54117e-010	4.61703e-010	4.67044e-010	
MinCout:	-4.57131e-013	CoarseR:	200	CoarseC:	60

	CoarseC130	CoarseC131	CoarseC132	CoarseC133	CoarseC134	CoarseC135	CoarseC136	CoarseC137	CoarseC138	CoarseC139	CoarseC140	CoarseC141	CoarseC142	CoarseC143	CoarseC144	CoarseC145	CoarseC146	CoarseC147	CoarseC148	CoarseC149	CoarseC150	
CoarseR90	-5.65637e-011	-5.35706e-011	-5.09638e-011	-4.78974e-011	-4.50203e-011	-4.24803e-011	-3.941e-011	-3.67983e-011	-3.39855e-011	-3.15637e-011	-2.8564e-011	-2.61404e-011	-2.31299e-011	-2.07048e-011	-1.84165e-011	-1.57969e-011	-1.27142e-011	-1.03587e-011	-7.53174e-012	-5.10166e-012	-2.80262e-012	
CoarseR91	-5.18833e-011	-4.90802e-011	-4.64724e-011	-4.3405e-011	-4.05271e-011	-3.79865e-011	-3.5107e-011	-3.23024e-011	-2.97565e-011	-2.70735e-011	-2.40652e-011	-2.19078e-011	-1.90888e-011	-1.64702e-011	-1.38509e-011	-1.1294e-011	-8.47577e-012	-5.8532e-012	-3.29111e-012	-8.60127e-013	1.24142e-012	
CoarseR92	-4.73683e-011	-4.45631e-011	-4.17645e-011	-3.88876e-011	-3.62769e-011	-3.34677e-011	-3.08551e-011	-2.77817e-011	-2.50427e-011	-2.26192e-011	-1.95417e-011	-1.71905e-011	-1.4371e-011	-1.22104e-011	-9.85005e-012	-6.76632e-012	-4.14386e-012	-1.58287e-012	1.04163e-012	3.60592e-012	5.77362e-012	
CoarseR93	-4.33521e-011	-4.00937e-011	-3.74787e-011	-3.47976e-011	-3.17978e-011	-2.89935e-011	-2.65724e-011	-2.35675e-011	-2.06851e-011	-1.83345e-011	-1.55176e-011	-1.31652e-011	-1.03453e-011	-7.46347e-012	-5.29667e-012	-2.47765e-012	8.25089e-014	2.70716e-012	5.07227e-012	7.89734e-012	1.00658e-011	
CoarseR94	-3.88574e-011	-3.60534e-011	-3.34443e-011	-3.03724e-011	-2.74934e-011	-2.44948e-011	-2.23357e-011	-1.90669e-011	-1.67125e-011	-1.42881e-011	-1.12087e-011	-8.85518e-012	-6.03512e-012	-3.41352e-012	-1.05384e-012	1.76775e-012	4.58993e-012	6.75632e-012	9.58503e-012	1.17534e-011	1.43208e-011	
CoarseR95	-3.43362e-011	-3.17995e-011	-2.89199e-011	-2.61157e-011	-2.35018e-011	-2.04275e-011	-1.80753e-011	-1.49984e-011	-1.26438e-011	-9.76118e-012	-7.21045e-012	-4.58814e-012	-1.76914e-012	5.90508e-013	3.2145e-012	5.84205e-012	8.66551e-012	1.0571e-011	1.38569e-011	1.60263e-011	1.8399e-011	
CoarseR96	-3.0515e-011	-2.77126e-011	-2.46393e-011	-2.20271e-011	-1.91454e-011	-1.66015e-011	-1.37912e-011	-1.09068e-011	-8.35753e-012	-5.47372e-012	-2.92107e-012	-4.93365e-013	2.52248e-012	4.68678e-012	7.0488e-012	9.8725e-012	1.2764e-011	1.48649e-011	1.76929e-011	2.00606e-011	2.24322e-011	
CoarseR97	-2.60178e-011	-2.36709e-011	-2.08657e-011	-1.79838e-011	-1.51756e-011	-1.25573e-011	-9.74596e-012	-7.12567e-012	-4.3113e-012	-1.69039e-012	1.12704e-012	3.29117e-012	6.57161e-012	8.73662e-012	1.12965e-011	1.39237e-011	1.6487e-011	1.91162e-011	2.16829e-011	2.38546e-011	2.64868e-011	
CoarseR98	-2.24156e-011	-1.915e-011	-1.63434e-011	-1.39934e-011	-1.09169e-011	-8.29887e-012	-5.75144e-012	-2.86524e-012	-2.44007e-013	2.37807e-012	4.93214e-012	7.55644e-012	1.03788e-011	1.27405e-011	1.51721e-011	1.77344e-011	2.03637e-011	2.29294e-011	2.55607e-011	2.81969e-011	3.03035e-011	
CoarseR99	-1.84071e-011	-1.53336e-011	-1.2451e-011	-9.90833e-012	-7.29029e-012	-4.21158e-012	-1.5916e-012	9.58034e-013	3.84566e-012	6.39918e-012	9.02299e-012	1.13845e-011	1.44712e-011	1.63731e-011	1.91995e-011	2.15641e-011	2.46575e-011	2.70252e-011	2.95934e-011	3.20303e-011	3.42046e-011	
CoarseR100	-1.41088e-011	-1.12994e-011	-8.48986e-012	-5.60537e-012	-3.05998e-012	-4.39615e-013	2.64186e-012	5.26416e-012	7.81648e-012	1.02454e-011	1.28692e-011	1.52307e-011	1.83196e-011	2.04197e-011	2.30492e-011	2.54141e-011	2.82449e-011	3.08774e-011	3.34462e-011	3.56207e-011	3.8193e-011	
CoarseR101	-1.03222e-011	-7.24622e-012	-4.628e-012	-1.81548e-012	1.07077e-012	3.61867e-012	6.50659e-012	9.05797e-012	1.16826e-011	1.4112e-011	1.68645e-011	1.92959e-011	2.23187e-011	2.44855e-011	2.71161e-011	2.99468e-011	3.23136e-011	3.46871e-011	3.73219e-011	3.94946e-011	4.18048e-011	
CoarseR102	-6.51541e-012	-3.43823e-012	-8.18881e-013	2.06715e-012	4.61381e-012	7.43095e-012	9.8587e-012	1.31399e-011	1.55693e-011	1.7928e-011	2.07526e-011	2.33812e-011	2.59417e-011	2.85725e-011	3.04766e-011	3.35723e-011	3.59395e-011	3.85118e-011	4.08816e-011	4.35186e-011	4.56959e-011	
CoarseR103	-2.42202e-012	3.90072e-013	3.01054e-012	5.89748e-012	8.714e-012	1.10684e-011	1.38883e-011	1.69749e-011	1.93332e-011	2.17642e-011	2.43221e-011	2.722e-011	2.97813e-011	3.19524e-011	3.43178e-011	3.71516e-011	3.95195e-011	4.21555e-011	4.47269e-011	4.71027e-011	4.95435e-011	
CoarseR104	1.15929e-012	4.04556e-012	6.78636e-012	9.47835e-012	1.22964e-011	1.49211e-011	1.74729e-011	2.05609e-011	2.3189e-011	2.5549e-011	2.83768e-011	3.08105e-011	3.3174e-011	3.57428e-011	3.83771e-011	4.07443e-011	4.33133e-011	4.57525e-011	4.85925e-011	5.07022e-011	5.3144e-011	
CoarseR105	5.22143e-012	8.03101e-012	1.06536e-011	1.32751e-011	1.56293e-011	1.87155e-011	2.13423e-011	2.37001e-011	2.65259e-011	2.9156e-011	3.17156e-011	3.41501e-011	3.69753e-011	3.93476e-011	4.19829e-011	4.4619e-011	4.71885e-011	4.9296e-011	5.21376e-011	5.43113e-011	5.66909e-011	
CoarseR106	8.76303e-012	1.16513e-011	1.41977e-011	1.70878e-011	1.97134e-011	2.25359e-011	2.46957e-011	2.77856e-011	3.01451e-011	3.2776e-011	3.56062e-011	3.82392e-011	4.08029e-011	4.29768e-011	4.53436e-011	4.81817e-011	5.05511e-011	5.27293e-011	5.57711e-011	5.79448e-011	6.01262e-011	
CoarseR107	1.23955e-011	1.52091e-011	1.78313e-011	2.04571e-011	2.30078e-011	2.59005e-011	2.85294e-011	3.10853e-011	3.37165e-011	3.63487e-011	3.8982e-011	4.13456e-011	4.39101e-011	4.65467e-011	4.91842e-011	5.12922e-011	5.41312e-011	5.6303e-011	5.91471e-011	6.12589e-011	6.34415e-011	
CoarseR108	1.57007e-011	1.87847e-011	2.14104e-011	2.396e-011	2.65881e-011	2.96779e-011	3.211e-011	3.49384e-011	3.74974e-011	3.99324e-011	4.27655e-011	4.4668e-011	4.77674e-011	4.98715e-011	5.23111e-011	5.49506e-011	5.7722e-011	5.99023e-011	6.2478e-011	6.51222e-011	6.7036e-011	
CoarseR109	1.9487e-011	2.21131e-011	2.47316e-011	2.75552e-011	3.01844e-011	3.28146e-011	3.53703e-011	3.84644e-011	4.10981e-011	4.32705e-011	4.60965e-011	4.82712e-011	5.11092e-011	5.34768e-011	5.61167e-011	5.84864e-011	6.08687e-011	6.35118e-011	6.58851e-011	6.82018e-011	7.0648e-011	
CoarseR110	2.26378e-011	2.57245e-011	2.85482e-011	3.11776e-011	3.40721e-011	3.6627e-011	3.92596e-011	4.162e-011	4.44532e-011	4.68899e-011	4.97262e-011	5.1829e-011	5.49313e-011	5.68374e-011	5.94788e-011	6.17892e-011	6.44331e-011	6.6606e-011	6.9455e-011	7.18406e-011	7.40166e-011	
MinCout:	8.25089e-014	CoarseR:	93	CoarseC:	146

	FineC0	FineC10	FineC20	FineC30	FineC40	FineC50	FineC60	FineC70	FineC80	FineC90	FineC100	FineC110	FineC120	FineC130	FineC140	FineC150	FineC160	FineC170	FineC180	FineC190	FineC200	FineC210	FineC220	FineC230	FineC240	FineC250	
FineR0	-2.18764e-010	-1.84063e-010	-1.61486e-010	-1.43545e-010	-1.29118e-010	-1.17774e-010	-1.07998e-010	-9.949e-011	-9.26022e-011	-8.62945e-011	-8.10855e-011	-7.60587e-011	-7.21361e-011	-6.8479e-011	-6.52775e-011	-6.21994e-011	-5.9567e-011	-5.7022e-011	-5.45909e-011	-5.24268e-011	-5.07208e-011	-4.89402e-011	-4.7232e-011	-4.59097e-011	-4.42123e-011	-4.30845e-011	
FineR10	-1.87341e-010	-1.53448e-010	-1.3078e-010	-1.13276e-010	-9.91128e-011	-8.78462e-011	-7.8055e-011	-6.98066e-011	-6.30302e-011	-5.69737e-011	-5.17556e-011	-4.69841e-011	-4.28668e-011	-3.91372e-011	-3.59318e-011	-3.28496e-011	-3.02917e-011	-2.786e-011	-2.56937e-011	-2.3526e-011	-2.16232e-011	-1.9843e-011	-1.81315e-011	-1.68101e-011	-1.53011e-011	-1.39785e-011	
FineR20	-1.72994e-010	-1.3945e-010	-1.16867e-010	-9.93564e-011	-8.56491e-011	-7.41142e-011	-6.44974e-011	-5.62461e-011	-4.9546e-011	-4.32246e-011	-3.84591e-011	-3.36927e-011	-2.95739e-011	-2.59102e-011	-2.23683e-011	-1.98126e-011	-1.67277e-011	-1.46274e-011	-1.21936e-011	-1.02902e-011	-8.51108e-012	-6.53889e-012	-5.28469e-012	-3.31027e-012	-1.98877e-012	-9.31867e-013	
FineR30	-1.64666e-010	-1.31129e-010	-1.09087e-010	-9.13006e-011	-7.75835e-011	-6.58631e-011	-5.6514e-011	-4.86388e-011	-4.14804e-011	-3.58788e-011	-3.03893e-011	-2.60823e-011	-2.19629e-011	-1.82986e-011	-1.47559e-011	-1.22003e-011	-9.57489e-012	-6.75194e-012	-4.84587e-012	-2.67593e-012	-4.37649e-013	1.01003e-012	2.59177e-012	4.30595e-012	5.36225e-012	6.68072e-012	
FineR40	-1.59074e-010	-1.25972e-010	-1.03573e-010	-8.58703e-011	-7.2342e-011	-6.0805e-011	-5.14573e-011	-4.34683e-011	-3.65006e-011	-3.04407e-011	-2.54108e-011	-2.06422e-011	-1.67155e-011	-1.30511e-011	-1.00379e-011	-6.7583e-012	-4.13151e-012	-2.03259e-012	4.0149e-013	2.37627e-012	4.28273e-012	6.26013e-012	7.5107e-012	9.28943e-012	1.06103e-011	1.16671e-011	
FineR50	-1.55498e-010	-1.22228e-010	-1.00101e-010	-8.25743e-011	-6.84029e-011	-5.73245e-011	-4.79751e-011	-3.9907e-011	-3.27472e-011	-2.68774e-011	-2.16558e-011	-1.73457e-011	-1.34894e-011	-9.75471e-012	-6.47573e-012	-3.46155e-012	-6.39494e-013	1.52948e-012	3.69832e-012	5.86863e-012	7.84472e-012	9.55482e-012	1.10726e-011	1.28517e-011	1.4104e-011	1.54252e-011	
FineR60	-1.52667e-010	-1.19397e-010	-9.74444e-011	-7.97398e-011	-6.60204e-011	-5.44876e-011	-4.51375e-011	-3.70685e-011	-3.03653e-011	-2.42326e-011	-1.92741e-011	-1.46975e-011	-1.05775e-011	-6.91266e-012	-3.63474e-012	-8.13644e-013	2.00881e-012	4.37181e-012	6.54209e-012	8.51608e-012	1.06881e-011	1.22026e-011	1.37178e-011	1.52336e-011	1.6554e-011	1.78739e-011	
FineR70	-1.50165e-010	-1.17339e-010	-9.49378e-011	-7.7683e-011	-6.39717e-011	-5.21617e-011	-4.30811e-011	-3.48235e-011	-2.8312e-011	-2.24419e-011	-1.72177e-011	-1.26421e-011	-8.521e-012	-4.59112e-012	-1.57797e-012	1.50758e-012	4.06561e-012	6.69383e-012	8.59879e-012	1.05738e-011	1.24813e-011	1.39958e-011	1.59738e-011	1.74899e-011	1.88104e-011	2.01309e-011	
FineR80	-1.48437e-010	-1.1544e-010	-9.3484e-011	-7.59564e-011	-6.22451e-011	-5.07043e-011	-4.13544e-011	-3.3211e-011	-2.65075e-011	-2.04487e-011	-1.54185e-011	-1.09147e-011	-6.79357e-012	-3.05816e-012	-4.52317e-014	2.77495e-012	5.59769e-012	7.96131e-012	1.01306e-011	1.23014e-011	1.44736e-011	1.59881e-011	1.77022e-011	1.88228e-011	2.02746e-011	2.18595e-011	
FineR90	-1.47236e-010	-1.14152e-010	-9.2011e-011	-7.44945e-011	-6.07749e-011	-4.94267e-011	-3.98859e-011	-3.18173e-011	-2.51175e-011	-1.89817e-011	-1.42179e-011	-9.71476e-012	-5.59357e-012	-2.12343e-012	1.15485e-012	4.17061e-012	6.99363e-012	9.4264e-012	1.15956e-011	1.37663e-011	1.54779e-011	1.69922e-011	1.89705e-011	2.02223e-011	2.1739e-011	2.30599e-011	
FineR100	-1.46026e-010	-1.13017e-010	-9.08049e-011	-7.33704e-011	-5.96495e-011	-4.83001e-011	-3.87583e-011	-3.08817e-011	-2.41785e-011	-1.78518e-011	-1.28936e-011	-8.31765e-012	-4.39096e-012	-7.26068e-013	2.55243e-012	5.56827e-012	8.39152e-012	1.05595e-011	1.2729e-011	1.46352e-011	1.66778e-011	1.85869e-011	1.99057e-011	2.16209e-011	2.28737e-011	2.42588e-011	
FineR110	-1.44993e-010	-1.12165e-010	-8.99386e-011	-7.25038e-011	-5.87828e-011	-4.74333e-011	-3.78159e-011	-3.00147e-011	-2.27771e-011	-1.69844e-011	-1.19539e-011	-7.45019e-012	-3.52347e-012	4.07195e-013	3.42013e-012	6.2408e-012	8.86708e-012	1.14274e-011	1.3597e-011	1.5572e-011	1.74799e-011	1.92587e-011	2.07738e-011	2.22896e-011	2.36099e-011	2.51271e-011	
FineR120	-1.44567e-010	-1.11024e-010	-8.90713e-011	-7.16363e-011	-5.79144e-011	-4.62964e-011	-3.69475e-011	-2.91467e-011	-2.2176e-011	-1.63099e-011	-1.1352e-011	-6.58176e-012	-2.65499e-012	1.08094e-012	4.28882e-012	7.10925e-012	9.73583e-012	1.23639e-011	1.47306e-011	1.64385e-011	1.84149e-011	1.9929e-011	2.16429e-011	2.31587e-011	2.44785e-011	2.59963e-011	
FineR130	-1.43511e-010	-1.10686e-010	-8.82839e-011	-7.12176e-011	-5.74985e-011	-4.56896e-011	-3.65342e-011	-2.80846e-011	-2.13069e-011	-1.57053e-011	-1.04812e-011	-5.71158e-012	-1.78537e-012	1.87918e-012	4.89187e-012	7.71251e-012	1.08006e-011	1.29684e-011	1.50683e-011	1.70432e-011	1.92842e-011	2.07298e-011	2.25095e-011	2.396e-011	2.52807e-011	2.66012e-011	
FineR140	-1.42896e-010	-1.09626e-010	-8.76733e-011	-7.06083e-011	-5.6707e-011	-4.50823e-011	-3.57351e-011	-2.77463e-011	-2.07753e-011	-1.51002e-011	-9.68401e-012	-5.56812e-012	-9.87032e-013	2.48298e-012	5.69106e-012	8.58094e-012	1.08734e-011	1.35018e-011	1.56712e-011	1.78441e-011	1.98181e-011	2.13322e-011	2.30463e-011	2.45621e-011	2.58828e-011	2.74e-011	
FineR150	-1.42278e-010	-1.09459e-010	-8.70622e-011	-6.96271e-011	-5.56374e-011	-4.4558e-011	-3.49406e-011	-2.71399e-011	-2.01694e-011	-1.43032e-011	-9.34561e-012	-4.57537e-012	-6.48771e-013	2.82116e-012	6.29508e-012	9.11449e-012	1.17419e-011	1.41045e-011	1.62737e-011	1.79838e-011	2.01559e-011	2.167e-011	2.33841e-011	2.51648e-011	2.64845e-011	2.78057e-011	
FineR160	-1.4177e-010	-1.08758e-010	-8.68046e-011	-6.92874e-011	-5.52979e-011	-4.37578e-011	-3.46014e-011	-2.65332e-011	-1.98305e-011	-1.39624e-011	-8.54631e-012	-3.9707e-012	-1.15371e-013	3.15965e-012	6.82813e-012	9.64919e-012	1.22759e-011	1.44428e-011	1.66119e-011	1.89808e-011	2.04941e-011	2.24688e-011	2.39835e-011	2.55019e-011	2.70194e-011	2.80759e-011	
FineR170	-1.41407e-010	-1.08316e-010	-8.61918e-011	-6.86669e-011	-5.47666e-011	-4.36037e-011	-3.42571e-011	-2.60011e-011	-1.92982e-011	-1.343e-011	-8.66677e-012	-3.89736e-012	2.84906e-014	3.95898e-012	6.97115e-012	1.02521e-011	1.26137e-011	1.49772e-011	1.7411e-011	1.90519e-011	2.12932e-011	2.28072e-011	2.4322e-011	2.6037e-011	2.73578e-011	2.88749e-011	
FineR180	-1.41066e-010	-1.07786e-010	-8.56612e-011	-6.84068e-011	-5.46962e-011	-4.31553e-011	-3.35374e-011	-2.57364e-011	-1.92263e-011	-1.30906e-011	-7.67432e-012	-3.29218e-012	8.28113e-013	4.2269e-012	7.70035e-012	1.03252e-011	1.28825e-011	1.53151e-011	1.74843e-011	1.96551e-011	2.1563e-011	2.33413e-011	2.48561e-011	2.61077e-011	2.76922e-011	2.9209e-011	
FineR190	-1.40351e-010	-1.07256e-010	-8.53079e-011	-6.78756e-011	-5.4157e-011	-4.28091e-011	-3.34612e-011	-2.53931e-011	-1.84235e-011	-1.27493e-011	-7.60089e-012	-2.8311e-012	8.29307e-013	5.02585e-012	8.03821e-012	1.0593e-011	1.32195e-011	1.6045e-011	1.82144e-011	2.01892e-011	2.18986e-011	2.36115e-011	2.51264e-011	2.66421e-011	2.79616e-011	2.9283e-011	
FineR200	-1.40096e-010	-1.07273e-010	-8.51436e-011	-6.76148e-011	-5.36328e-011	-4.2277e-011	-3.29288e-011	-2.5132e-011	-1.84279e-011	-1.22913e-011	-7.33557e-012	-2.75824e-012	1.55731e-012	4.56719e-012	8.30731e-012	1.11279e-011	1.36856e-011	1.61186e-011	1.82881e-011	2.04592e-011	2.26317e-011	2.38806e-011	2.5661e-011	2.71767e-011	2.82325e-011	2.98177e-011	
FineR210	-1.39841e-010	-1.06742e-010	-8.47899e-011	-6.73539e-011	-5.3363e-011	-4.22828e-011	-3.26648e-011	-2.48634e-011	-1.78924e-011	-1.20232e-011	-7.06765e-012	-2.22463e-012	1.89662e-012	5.5617e-012	8.57463e-012	1.1396e-011	1.40218e-011	1.63856e-011	1.8753e-011	2.05298e-011	2.27021e-011	2.42162e-011	2.59304e-011	2.74462e-011	2.87673e-011	3.00875e-011	
FineR220	-1.39478e-010	-1.06658e-010	-8.45305e-011	-6.7003e-011	-5.32843e-011	-4.19363e-011	-3.23197e-011	-2.43304e-011	-1.73592e-011	-1.17572e-011	-6.99395e-012	-2.2237e-012	1.89762e-012	5.63408e-012	8.64664e-012	1.19283e-011	1.44859e-011	1.66541e-011	1.90883e-011	2.0995e-011	2.27726e-011	2.44855e-011	2.60005e-011	2.75161e-011	2.88371e-011	3.03541e-011	
FineR230	-1.39313e-010	-1.06212e-010	-8.42593e-011	-6.67325e-011	-5.3022e-011	-4.14811e-011	-3.18629e-011	-2.42553e-011	-1.72842e-011	-1.14162e-011	-6.45958e-012	-2.15041e-012	1.97046e-012	5.90169e-012	8.91412e-012	1.20001e-011	1.45574e-011	1.71859e-011	1.93554e-011	2.13301e-011	2.30395e-011	2.50165e-011	2.65312e-011	2.75861e-011	2.92992e-011	3.04238e-011	
FineR240	-1.39115e-010	-1.063e-010	-8.37157e-011	-6.6652e-011	-5.24822e-011	-4.13202e-011	-3.205e-011	-2.39864e-011	-1.72834e-011	-1.14153e-011	-6.3857e-012	-1.61648e-012	2.30904e-012	6.23961e-012	9.4473e-012	1.22663e-011	1.50895e-011	1.72572e-011	1.94265e-011	2.15972e-011	2.33743e-011	2.52834e-011	2.67981e-011	2.81168e-011	2.93691e-011	3.09541e-011	
FineR250	-1.38674e-010	-1.05855e-010	-8.39052e-011	-6.62006e-011	-5.26732e-011	-4.13198e-011	-3.17051e-011	-2.34499e-011	-1.69412e-011	-1.11469e-011	-5.65855e-012	-1.54302e-012	2.57694e-012	6.24082e-012	9.25271e-012	1.23382e-011	1.51611e-011	1.72586e-011	1.96923e-011	2.18629e-011	2.33758e-011	2.50884e-011	2.6603e-011	2.85834e-011	2.99028e-011	3.07588e-011	
MinCout:	2.84906e-014	FineR:	170	FineC:	120

	FineC120	FineC121	FineC122	FineC123	FineC124	FineC125	FineC126	FineC127	FineC128	FineC129	FineC130	FineC131	FineC132	FineC133	FineC134	FineC135	FineC136	FineC137	FineC138	FineC139	FineC140	
FineR90	-5.59322e-012	-5.13271e-012	-4.74393e-012	-4.47806e-012	-4.01759e-012	-3.82326e-012	-3.43379e-012	-2.97327e-012	-2.31815e-012	-2.31815e-012	-2.12305e-012	-1.46775e-012	-1.46775e-012	-8.12311e-013	-3.51823e-013	-1.56731e-013	3.82346e-014	4.9899e-013	6.94253e-013	8.89599e-013	1.35015e-012	
FineR91	-5.52253e-012	-5.13354e-012	-4.67301e-012	-4.2841e-012	-4.01824e-012	-3.36333e-012	-3.43411e-012	-2.97377e-012	-2.51323e-012	-2.05273e-012	-1.92858e-012	-1.39749e-012	-1.00774e-012	-1.00748e-012	-3.51937e-013	1.08574e-013	1.08574e-013	7.64271e-013	7.64271e-013	1.15485e-012	1.34992e-012	
FineR92	-5.52253e-012	-5.13386e-012	-4.67331e-012	-4.21321e-012	-3.7527e-012	-3.62916e-012	-3.36333e-012	-2.70828e-012	-2.05309e-012	-2.05309e-012	-1.59257e-012	-1.20287e-012	-9.37228e-013	-5.4712e-013	-5.4712e-013	-8.65953e-014	3.74065e-013	5.69067e-013	1.22487e-012	1.22487e-012	1.61555e-012	
FineR93	-5.06312e-012	-4.86822e-012	-4.40815e-012	-4.21348e-012	-3.75331e-012	-3.55833e-012	-2.90332e-012	-2.70854e-012	-2.24816e-012	-1.78763e-012	-1.32714e-012	-1.39776e-012	-9.37228e-013	-2.81742e-013	-2.81742e-013	3.73886e-013	3.73886e-013	8.34384e-013	1.02982e-012	1.22487e-012	1.88082e-012	
FineR94	-5.06312e-012	-4.79721e-012	-4.14254e-012	-3.94787e-012	-3.75331e-012	-3.29278e-012	-2.83257e-012	-2.44302e-012	-1.98266e-012	-1.78783e-012	-1.59286e-012	-1.13232e-012	-9.37418e-013	-4.76866e-013	-1.63634e-014	1.78728e-013	6.3924e-013	8.34617e-013	1.02966e-012	1.49016e-012	1.68557e-012	
FineR95	-4.99205e-012	-4.53157e-012	-4.14276e-012	-4.14254e-012	-3.48772e-012	-3.29301e-012	-3.02723e-012	-2.37226e-012	-1.98266e-012	-1.78794e-012	-1.32738e-012	-8.66877e-013	-8.66877e-013	-4.76866e-013	-1.63634e-014	1.78728e-013	6.3924e-013	8.34464e-013	1.29498e-012	1.5604e-012	1.95087e-012	
FineR96	-4.72638e-012	-4.79744e-012	-4.33742e-012	-3.68264e-012	-3.68264e-012	-3.02772e-012	-2.5672e-012	-1.91213e-012	-2.17767e-012	-1.52243e-012	-1.06191e-012	-1.06191e-012	-4.06515e-013	-1.40967e-013	2.49019e-013	7.09679e-013	6.39294e-013	1.09983e-012	1.36527e-012	1.75568e-012	2.21617e-012	
FineR97	-4.72711e-012	-4.26659e-012	-3.87753e-012	-3.68284e-012	-3.22265e-012	-2.76212e-012	-2.56736e-012	-2.10708e-012	-1.91213e-012	-1.45177e-012	-1.0621e-012	-6.01556e-013	-3.35983e-013	5.39438e-014	2.49019e-013	2.49019e-013	9.04696e-013	1.17017e-012	1.56051e-012	2.02102e-012	1.95112e-012	
FineR98	-4.46139e-012	-4.26659e-012	-4.0724e-012	-3.61187e-012	-2.95701e-012	-2.95701e-012	-2.302e-012	-2.10708e-012	-1.4519e-012	-1.4519e-012	-9.914e-013	-3.36068e-013	-3.36068e-013	3.19407e-013	5.39438e-014	7.09586e-013	9.75081e-013	1.36537e-012	1.82589e-012	1.56051e-012	2.21647e-012	
FineR99	-4.65616e-012	-4.46139e-012	-3.8067e-012	-3.34621e-012	-3.15188e-012	-2.69137e-012	-2.03639e-012	-2.10742e-012	-1.64686e-012	-9.9157e-013	-7.25947e-013	-5.3105e-013	-1.41109e-013	-1.41109e-013	5.14498e-013	7.80019e-013	9.75024e-013	1.36537e-012	1.63083e-012	2.02129e-012	2.28671e-012	
FineR100	-4.46154e-012	-4.00151e-012	-3.73569e-012	-3.34672e-012	-2.8862e-012	-2.49691e-012	-2.49691e-012	-1.8418e-012	-1.38127e-012	-9.20894e-013	-7.26008e-013	-3.36139e-013	-3.36139e-013	1.24391e-013	7.79973e-013	7.79973e-013	9.75024e-013	1.43573e-012	1.63078e-012	2.09158e-012	2.28668e-012	
FineR101	-4.1963e-012	-4.1963e-012	-3.73578e-012	-3.08101e-012	-3.08093e-012	-2.69179e-012	-2.03671e-012	-1.57617e-012	-1.31052e-012	-9.20944e-013	-9.20894e-013	0	-7.06026e-014	1.94945e-013	5.84945e-013	1.04561e-012	1.50611e-012	1.4357e-012	2.09156e-012	2.09156e-012	2.74757e-012	
FineR102	-4.19642e-012	-3.93053e-012	-3.2758e-012	-2.8153e-012	-2.88664e-012	-2.4261e-012	-1.77105e-012	-1.77105e-012	-1.11586e-012	-8.5022e-013	-7.2613e-013	-2.65573e-013	1.94934e-013	3.89941e-013	5.84945e-013	1.04561e-012	1.24064e-012	1.89647e-012	2.1619e-012	2.35699e-012	2.81783e-012	
FineR103	-4.12526e-012	-3.66476e-012	-3.27587e-012	-3.08148e-012	-2.62092e-012	-2.16042e-012	-1.70021e-012	-1.50539e-012	-1.11586e-012	-8.5022e-013	-4.6052e-013	0	1.94959e-013	6.55488e-013	1.0456e-012	1.0456e-012	1.50612e-012	2.16193e-012	2.16193e-012	2.35699e-012	2.81788e-012	
FineR104	-3.85945e-012	-3.93112e-012	-3.47056e-012	-3.01005e-012	-2.54996e-012	-2.16074e-012	-1.70021e-012	-1.23993e-012	-1.04508e-012	-6.55444e-013	-1.94911e-013	0	1.94959e-013	7.26066e-013	8.5058e-013	1.31112e-012	1.57658e-012	1.96689e-012	2.23231e-012	2.62275e-012	2.81788e-012	
FineR105	-4.12587e-012	-3.6653e-012	-3.01049e-012	-2.54996e-012	-2.81572e-012	-2.3552e-012	-1.70021e-012	-1.43455e-012	-1.04508e-012	-3.89798e-013	-3.89821e-013	-1.94911e-013	4.60543e-013	4.60543e-013	1.11614e-012	1.38162e-012	1.50634e-012	2.03732e-012	2.42769e-012	2.62281e-012	2.88819e-012	
FineR106	-4.05412e-012	-3.39948e-012	-2.7447e-012	-2.7447e-012	-2.54996e-012	-1.89501e-012	-1.89501e-012	-1.23991e-012	-1.04508e-012	-5.84698e-013	-3.89798e-013	2.65621e-013	5.31169e-013	6.55587e-013	1.11614e-012	1.38162e-012	1.77188e-012	2.03732e-012	2.42776e-012	2.88828e-012	3.34915e-012	
FineR107	-3.59416e-012	-3.39948e-012	-3.20525e-012	-2.7447e-012	-2.28421e-012	-1.82406e-012	-1.70046e-012	-1.23991e-012	-5.84663e-013	-3.19052e-013	-1.24152e-013	5.31242e-013	2.65621e-013	9.21183e-013	1.18669e-012	1.3817e-012	1.84236e-012	2.03732e-012	2.69327e-012	2.69316e-012	2.88828e-012	
FineR108	-3.59416e-012	-3.59416e-012	-2.93941e-012	-2.47891e-012	-2.55033e-012	-1.82406e-012	-1.43471e-012	-9.74198e-013	-3.1898e-013	-3.1898e-013	3.36379e-013	3.36295e-013	5.31242e-013	1.18678e-012	1.45225e-012	1.3817e-012	2.10789e-012	2.03741e-012	2.49816e-012	2.95864e-012	3.34926e-012	
FineR109	-3.52298e-012	-3.3283e-012	-2.67358e-012	-2.47891e-012	-2.28453e-012	-1.82401e-012	-1.16897e-012	-9.74323e-013	-7.79505e-013	-3.1898e-013	1.41444e-013	3.36379e-013	9.91881e-013	1.25738e-012	1.18678e-012	1.64741e-012	1.84246e-012	2.30319e-012	2.49828e-012	3.15424e-012	3.15411e-012	
FineR110	-3.52292e-012	-2.86824e-012	-2.67358e-012	-2.47925e-012	-2.01872e-012	-1.75302e-012	-1.36372e-012	-1.16897e-012	-7.08661e-013	-5.32767e-014	1.4154e-013	4.07101e-013	7.97007e-013	1.25751e-012	1.7181e-012	1.64753e-012	2.30331e-012	2.56873e-012	2.49828e-012	3.22462e-012	3.15424e-012	
MinCout:	0	FineR:	101	FineC:	131

