	CoarseC0	CoarseC10	CoarseC20	CoarseC30	CoarseC40	CoarseC50	CoarseC60	CoarseC70	CoarseC80	CoarseC90	CoarseC100	CoarseC110	CoarseC120	CoarseC130	CoarseC140	CoarseC150	CoarseC160	CoarseC170	CoarseC180	CoarseC190	CoarseC200	CoarseC210	CoarseC220	CoarseC230	CoarseC240	CoarseC250	
CoarseR0	-1.76399e-009	-1.74847e-009	-1.72791e-009	-1.70316e-009	-1.67409e-009	-1.64224e-009	-1.60644e-009	-1.56835e-009	-1.52657e-009	-1.48147e-009	-1.42716e-009	-1.37074e-009	-1.31908e-009	-1.27022e-009	-1.2252e-009	-1.18284e-009	-1.14357e-009	-1.10651e-009	-1.07147e-009	-1.03912e-009	-1.00894e-009	-9.80809e-010	-9.54012e-010	-9.29742e-010	-9.06449e-010	-8.84646e-010	
CoarseR10	-1.36189e-009	-1.34255e-009	-1.31989e-009	-1.29372e-009	-1.26412e-009	-1.23205e-009	-1.197e-009	-1.15858e-009	-1.11624e-009	-1.06443e-009	-1.0099e-009	-9.59187e-010	-9.1259e-010	-8.69251e-010	-8.28311e-010	-7.89525e-010	-7.5429e-010	-7.20806e-010	-6.89916e-010	-6.61264e-010	-6.34451e-010	-6.08734e-010	-5.8516e-010	-5.63282e-010	-5.42523e-010	-5.22719e-010	
CoarseR20	-1.11826e-009	-1.0967e-009	-1.07271e-009	-1.04556e-009	-1.01547e-009	-9.82268e-010	-9.45905e-010	-9.0642e-010	-8.57777e-010	-8.03438e-010	-7.53285e-010	-7.0698e-010	-6.6353e-010	-6.22944e-010	-5.84862e-010	-5.49097e-010	-5.16944e-010	-4.86473e-010	-4.57792e-010	-4.31831e-010	-4.07262e-010	-3.83951e-010	-3.62602e-010	-3.42278e-010	-3.23143e-010	-3.0562e-010	
CoarseR30	-9.535e-010	-9.29978e-010	-9.05116e-010	-8.76756e-010	-8.45261e-010	-8.10748e-010	-7.73035e-010	-7.29993e-010	-6.7442e-010	-6.23722e-010	-5.76642e-010	-5.32987e-010	-4.91607e-010	-4.53024e-010	-4.17644e-010	-3.84893e-010	-3.54635e-010	-3.2668e-010	-2.99923e-010	-2.75395e-010	-2.52381e-010	-2.30938e-010	-2.10786e-010	-1.92394e-010	-1.74204e-010	-1.57742e-010	
CoarseR40	-8.34478e-010	-8.09646e-010	-7.83908e-010	-7.53941e-010	-7.21033e-010	-6.85438e-010	-6.45397e-010	-5.93262e-010	-5.40343e-010	-4.91847e-010	-4.47093e-010	-4.0462e-010	-3.65201e-010	-3.29099e-010	-2.95689e-010	-2.64569e-010	-2.36191e-010	-2.09604e-010	-1.84431e-010	-1.6141e-010	-1.39911e-010	-1.1976e-010	-1.00885e-010	-8.35447e-011	-6.67906e-011	-5.15931e-011	
CoarseR50	-7.43794e-010	-7.17585e-010	-6.89805e-010	-6.59016e-010	-6.24584e-010	-5.86995e-010	-5.42076e-010	-4.86713e-010	-4.36173e-010	-3.89191e-010	-3.45449e-010	-3.04718e-010	-2.66713e-010	-2.32651e-010	-2.00985e-010	-1.71388e-010	-1.44441e-010	-1.19137e-010	-9.53586e-011	-7.30199e-011	-5.30009e-011	-3.4046e-011	-1.58601e-011	3.44305e-013	1.58728e-011	3.08795e-011	
CoarseR60	-6.72743e-010	-6.44947e-010	-6.15832e-010	-5.83187e-010	-5.47268e-010	-5.0777e-010	-4.54398e-010	-4.01513e-010	-3.52578e-010	-3.06864e-010	-2.63934e-010	-2.24684e-010	-1.88828e-010	-1.55592e-010	-1.25576e-010	-9.68713e-011	-7.1331e-011	-4.71773e-011	-2.47657e-011	-3.62255e-012	1.5758e-011	3.38782e-011	5.08788e-011	6.68848e-011	8.15316e-011	9.54211e-011	
CoarseR70	-6.14857e-010	-5.8536e-010	-5.54997e-010	-5.2169e-010	-4.83758e-010	-4.40083e-010	-3.83907e-010	-3.31964e-010	-2.84264e-010	-2.38701e-010	-1.97049e-010	-1.59279e-010	-1.24844e-010	-9.29207e-011	-6.35839e-011	-3.6857e-011	-1.17976e-011	1.12847e-011	3.3279e-011	5.33309e-011	7.18128e-011	8.92644e-011	1.05643e-010	1.20508e-010	1.34772e-010	1.47704e-010	
CoarseR80	-5.67462e-010	-5.36036e-010	-5.04376e-010	-4.69049e-010	-4.29841e-010	-3.79379e-010	-3.23781e-010	-2.73419e-010	-2.25978e-010	-1.81582e-010	-1.41291e-010	-1.04821e-010	-7.14186e-011	-4.04205e-011	-1.21105e-011	1.40897e-011	3.83874e-011	6.06374e-011	8.15265e-011	1.00667e-010	1.18784e-010	1.35334e-010	1.51075e-010	1.65489e-010	1.78596e-010	1.91335e-010	
CoarseR90	-5.25657e-010	-4.93868e-010	-4.6062e-010	-4.24264e-010	-3.8217e-010	-3.26268e-010	-2.72298e-010	-2.22563e-010	-1.75031e-010	-1.32019e-010	-9.28072e-011	-5.73288e-011	-2.46336e-011	5.63098e-012	3.28542e-011	5.8434e-011	8.11588e-011	1.02997e-010	1.23542e-010	1.42309e-010	1.59051e-010	1.75446e-010	1.90537e-010	2.0406e-010	2.16965e-010	2.28563e-010	
CoarseR100	-4.90108e-010	-4.56441e-010	-4.2265e-010	-3.84486e-010	-3.38172e-010	-2.80733e-010	-2.27512e-010	-1.77553e-010	-1.30918e-010	-8.88256e-011	-5.08671e-011	-1.59069e-011	1.58088e-011	4.4932e-011	7.15388e-011	9.64159e-011	1.18983e-010	1.40162e-010	1.59611e-010	1.7798e-010	1.94332e-010	2.1002e-010	2.2445e-010	2.373e-010	2.49754e-010	2.6066e-010	
CoarseR110	-4.59785e-010	-4.25134e-010	-3.89484e-010	-3.49666e-010	-2.97569e-010	-2.40577e-010	-1.87914e-010	-1.37703e-010	-9.28784e-011	-5.13714e-011	-1.42137e-011	2.01628e-011	5.10693e-011	7.94482e-011	1.05901e-010	1.29816e-010	1.52014e-010	1.72088e-010	1.91359e-010	2.0906e-010	2.24984e-010	2.39797e-010	2.54003e-010	2.66387e-010	2.77905e-010	2.88313e-010	
CoarseR120	-4.32639e-010	-3.95674e-010	-3.59138e-010	-3.18208e-010	-2.61246e-010	-2.04809e-010	-1.5268e-010	-1.02603e-010	-5.79113e-011	-1.78568e-011	1.89049e-011	5.22739e-011	8.23041e-011	1.10458e-010	1.35598e-010	1.5936e-010	1.81184e-010	2.01103e-010	2.19972e-010	2.36744e-010	2.5224e-010	2.66832e-010	2.80104e-010	2.91747e-010	3.03021e-010	3.12924e-010	
CoarseR130	-4.07585e-010	-3.70309e-010	-3.32549e-010	-2.89112e-010	-2.28797e-010	-1.73118e-010	-1.20264e-010	-7.10524e-011	-2.76077e-011	1.22455e-011	4.85824e-011	8.10764e-011	1.10744e-010	1.37871e-010	1.63355e-010	1.86242e-010	2.07617e-010	2.2692e-010	2.45096e-010	2.61697e-010	2.76441e-010	2.90568e-010	3.03318e-010	3.14765e-010	3.25278e-010	3.34436e-010	
CoarseR140	-3.85559e-010	-3.46795e-010	-3.08053e-010	-2.60093e-010	-1.99008e-010	-1.43786e-010	-9.03952e-011	-4.23556e-011	9.93064e-013	3.98821e-011	7.55151e-011	1.07475e-010	1.36532e-010	1.63514e-010	1.88386e-010	2.11186e-010	2.3158e-010	2.50992e-010	2.68166e-010	2.84333e-010	2.98885e-010	3.12056e-010	3.24543e-010	3.35438e-010	3.45448e-010	3.54317e-010	
CoarseR150	-3.65335e-010	-3.25538e-010	-2.8514e-010	-2.3259e-010	-1.72008e-010	-1.16623e-010	-6.34927e-011	-1.63905e-011	2.64479e-011	6.51984e-011	9.97681e-011	1.3159e-010	1.60069e-010	1.86682e-010	2.10824e-010	2.3319e-010	2.53249e-010	2.72175e-010	2.8916e-010	3.05099e-010	3.18871e-010	3.31771e-010	3.43767e-010	3.53892e-010	3.63867e-010	3.71914e-010	
CoarseR160	-3.46949e-010	-3.05373e-010	-2.64006e-010	-2.07372e-010	-1.47634e-010	-9.14125e-011	-3.89115e-011	7.60016e-012	5.012e-011	8.79973e-011	1.22225e-010	1.53684e-010	1.81793e-010	2.07977e-010	2.32031e-010	2.5342e-010	2.73284e-010	2.91752e-010	3.08757e-010	3.2369e-010	3.37726e-010	3.50086e-010	3.61055e-010	3.71389e-010	3.80027e-010	3.87751e-010	
CoarseR170	-3.2958e-010	-2.87512e-010	-2.4437e-010	-1.84377e-010	-1.24463e-010	-6.8055e-011	-1.64398e-011	2.99259e-011	7.1757e-011	1.08909e-010	1.43039e-010	1.73868e-010	2.02075e-010	2.28081e-010	2.51199e-010	2.7273e-010	2.91793e-010	3.10026e-010	3.26571e-010	3.40973e-010	3.54242e-010	3.666e-010	3.77559e-010	3.87031e-010	3.95364e-010	4.01959e-010	
CoarseR180	-3.13881e-010	-2.70784e-010	-2.26109e-010	-1.63321e-010	-1.0375e-010	-4.67332e-011	4.88126e-012	5.04707e-011	9.1171e-011	1.28488e-010	1.62184e-010	1.92374e-010	2.20181e-010	2.45517e-010	2.68917e-010	2.90196e-010	3.08888e-010	3.26604e-010	3.42387e-010	3.57325e-010	3.70032e-010	3.81819e-010	3.91936e-010	4.01407e-010	4.08564e-010	4.15362e-010	
CoarseR190	-2.98934e-010	-2.54782e-010	-2.08125e-010	-1.43268e-010	-8.37833e-011	-2.7042e-011	2.38766e-011	6.89213e-011	1.1025e-010	1.46876e-010	1.8021e-010	2.10323e-010	2.3761e-010	2.6257e-010	2.85309e-010	3.0681e-010	3.25046e-010	3.42207e-010	3.57755e-010	3.72155e-010	3.84593e-010	3.95792e-010	4.0557e-010	4.14435e-010	4.21227e-010	4.27391e-010	
CoarseR200	-2.85519e-010	-2.40006e-010	-1.89675e-010	-1.25205e-010	-6.53243e-011	-8.79359e-012	4.15203e-011	8.66341e-011	1.27491e-010	1.63738e-010	1.96667e-010	2.26592e-010	2.53457e-010	2.7869e-010	3.00918e-010	3.21738e-010	3.39895e-010	3.5692e-010	3.72208e-010	3.86261e-010	3.98358e-010	4.09037e-010	4.18196e-010	4.26698e-010	4.33372e-010	4.37805e-010	
CoarseR210	-2.72543e-010	-2.26068e-010	-1.72203e-010	-1.08187e-010	-4.7511e-011	8.54867e-012	5.83836e-011	1.03346e-010	1.43274e-010	1.79672e-010	2.122e-010	2.41921e-010	2.68618e-010	2.93184e-010	3.15138e-010	3.36008e-010	3.54173e-010	3.71103e-010	3.85551e-010	3.99099e-010	4.10911e-010	4.21227e-010	4.30014e-010	4.37612e-010	4.43444e-010	4.48281e-010	
CoarseR220	-2.60862e-010	-2.13138e-010	-1.56502e-010	-9.22441e-011	-3.10297e-011	2.46256e-011	7.43414e-011	1.1854e-010	1.58258e-010	1.93902e-010	2.2705e-010	2.5612e-010	2.82542e-010	3.07028e-010	3.28917e-010	3.4921e-010	3.66842e-010	3.83029e-010	3.98198e-010	4.11399e-010	4.2268e-010	4.32596e-010	4.41325e-010	4.48031e-010	4.53398e-010	4.57285e-010	
CoarseR230	-2.48944e-010	-2.00856e-010	-1.41275e-010	-7.73567e-011	-1.56077e-011	3.94977e-011	8.91422e-011	1.33238e-010	1.72554e-010	2.08063e-010	2.40222e-010	2.69554e-010	2.96177e-010	3.19923e-010	3.41791e-010	3.6184e-010	3.79476e-010	3.95294e-010	4.10441e-010	4.22594e-010	4.33632e-010	4.42992e-010	4.51357e-010	4.57711e-010	4.624e-010	4.64949e-010	
CoarseR240	-2.38179e-010	-1.88848e-010	-1.27093e-010	-6.32752e-011	-8.92703e-013	5.3638e-011	1.02811e-010	1.46751e-010	1.85877e-010	2.21027e-010	2.53371e-010	2.82246e-010	3.08493e-010	3.32372e-010	3.54156e-010	3.73648e-010	3.91313e-010	4.06838e-010	4.20865e-010	4.33727e-010	4.43952e-010	4.53148e-010	4.60838e-010	4.66784e-010	4.71036e-010	4.72151e-010	
CoarseR250	-2.27753e-010	-1.77606e-010	-1.13898e-010	-4.9727e-011	1.24009e-011	6.72936e-011	1.15873e-010	1.59406e-010	1.98452e-010	2.33653e-010	2.65757e-010	2.94438e-010	3.20427e-010	3.44084e-010	3.6533e-010	3.84854e-010	4.0221e-010	4.17701e-010	4.3143e-010	4.43876e-010	4.54299e-010	4.63189e-010	4.70163e-010	4.75102e-010	4.78396e-010	4.75997e-010	
MinCout:	3.44305e-013	CoarseR:	50	CoarseC:	230

	CoarseC120	CoarseC121	CoarseC122	CoarseC123	CoarseC124	CoarseC125	CoarseC126	CoarseC127	CoarseC128	CoarseC129	CoarseC130	CoarseC131	CoarseC132	CoarseC133	CoarseC134	CoarseC135	CoarseC136	CoarseC137	CoarseC138	CoarseC139	CoarseC140	
CoarseR80	-7.10413e-011	-6.78805e-011	-6.44242e-011	-6.17947e-011	-5.87144e-011	-5.59043e-011	-5.26193e-011	-4.95348e-011	-4.5875e-011	-4.34414e-011	-4.04205e-011	-3.75241e-011	-3.45002e-011	-3.16806e-011	-2.91144e-011	-2.62149e-011	-2.34487e-011	-2.05473e-011	-1.75843e-011	-1.4757e-011	-1.21105e-011	
CoarseR81	-6.62098e-011	-6.30485e-011	-5.95789e-011	-5.67702e-011	-5.36885e-011	-5.12479e-011	-4.732e-011	-4.46973e-011	-4.10251e-011	-3.83978e-011	-3.55039e-011	-3.27482e-011	-2.94635e-011	-2.6824e-011	-2.39978e-011	-2.13565e-011	-1.8138e-011	-1.57629e-011	-1.26576e-011	-9.89322e-012	-7.25628e-012	
CoarseR82	-6.13261e-011	-5.84366e-011	-5.49663e-011	-5.20755e-011	-4.88828e-011	-4.59899e-011	-4.27041e-011	-3.98878e-011	-3.64072e-011	-3.39727e-011	-3.06902e-011	-2.78675e-011	-2.48418e-011	-2.22113e-011	-1.91784e-011	-1.65457e-011	-1.37105e-011	-1.08783e-011	-8.11056e-012	-5.46494e-012	-2.89556e-012	
CoarseR83	-5.66852e-011	-5.35974e-011	-5.01357e-011	-4.73238e-011	-4.404e-011	-4.14171e-011	-3.79382e-011	-3.53129e-011	-3.15696e-011	-2.93959e-011	-2.63811e-011	-2.32874e-011	-2.02576e-011	-1.74328e-011	-1.4792e-011	-1.19612e-011	-9.19571e-012	-6.55954e-012	-3.71604e-012	-4.17518e-013	1.69466e-012	
CoarseR84	-5.18206e-011	-4.90101e-011	-4.52755e-011	-4.29163e-011	-3.93697e-011	-3.65538e-011	-3.32671e-011	-3.0448e-011	-2.69654e-011	-2.45296e-011	-2.158e-011	-1.868e-011	-1.55838e-011	-1.29513e-011	-9.92063e-012	-7.34956e-012	-4.71364e-012	-1.67775e-012	1.15931e-012	3.73203e-012	6.37209e-012	
CoarseR85	-4.74677e-011	-4.39236e-011	-4.09131e-011	-3.78286e-011	-3.48141e-011	-3.21889e-011	-2.84448e-011	-2.55478e-011	-2.23336e-011	-1.97024e-011	-1.68724e-011	-1.40451e-011	-1.10165e-011	-8.38248e-012	-5.08856e-012	-2.90844e-012	1.20724e-013	2.69615e-012	5.53567e-012	8.37578e-012	1.09566e-011	
CoarseR86	-4.28844e-011	-3.93389e-011	-3.60624e-011	-3.3433e-011	-2.99612e-011	-2.77919e-011	-2.43159e-011	-2.14181e-011	-1.76701e-011	-1.55705e-011	-1.22081e-011	-9.64294e-012	-6.61875e-012	-3.97874e-012	-9.51131e-013	1.42725e-012	4.52729e-012	6.90401e-012	1.01382e-011	1.27846e-011	1.53612e-011	
CoarseR87	-3.80831e-011	-3.51897e-011	-3.17202e-011	-2.88249e-011	-2.58087e-011	-2.29882e-011	-1.94339e-011	-1.68745e-011	-1.33184e-011	-1.11447e-011	-7.85391e-012	-5.48403e-012	-1.99311e-012	6.43216e-013	3.47894e-012	5.85347e-012	8.89068e-012	1.15312e-011	1.43051e-011	1.71523e-011	1.99917e-011	
CoarseR88	-3.36423e-011	-3.04782e-011	-2.70805e-011	-2.44542e-011	-2.13647e-011	-1.82738e-011	-1.52532e-011	-1.21591e-011	-9.13571e-012	-6.69715e-012	-3.47349e-012	-6.43567e-013	2.45761e-012	4.83057e-012	7.93427e-012	1.02415e-011	1.3544e-011	1.59222e-011	1.92276e-011	2.16083e-011	2.39255e-011	
CoarseR89	-2.92481e-011	-2.6159e-011	-2.28777e-011	-2.00541e-011	-1.69634e-011	-1.41403e-011	-1.05837e-011	-8.21807e-012	-4.73032e-012	-2.29108e-012	9.3158e-013	3.57026e-012	6.86766e-012	9.43934e-012	1.22746e-011	1.4919e-011	1.77585e-011	2.04012e-011	2.3182e-011	2.58272e-011	2.86076e-011	
CoarseR90	-2.43638e-011	-2.20054e-011	-1.82604e-011	-1.54375e-011	-1.22699e-011	-9.90828e-012	-5.9601e-012	-3.32669e-012	-1.05409e-013	2.06726e-012	5.36476e-012	8.00235e-012	1.10355e-011	1.36753e-011	1.6911e-011	1.88912e-011	2.19312e-011	2.45108e-011	2.73573e-011	3.02015e-011	3.25835e-011	
CoarseR91	-2.06453e-011	-1.70931e-011	-1.4077e-011	-1.0985e-011	-8.15953e-012	-5.33267e-012	-2.04129e-012	5.93481e-013	4.0832e-012	6.45377e-012	9.55449e-012	1.23908e-011	1.52268e-011	1.80664e-011	2.0838e-011	2.32848e-011	2.6326e-011	2.87057e-011	3.16175e-011	3.46001e-011	3.67185e-011	
CoarseR92	-1.63198e-011	-1.34989e-011	-1.01369e-011	-7.11926e-012	-4.02367e-012	-9.27833e-013	1.82831e-012	4.46388e-012	8.22325e-012	1.0862e-011	1.34292e-011	1.62672e-011	1.89076e-011	2.17486e-011	2.50544e-011	2.7166e-011	3.0278e-011	3.28594e-011	3.59699e-011	3.83524e-011	4.06738e-011	
CoarseR93	-1.18986e-011	-9.07408e-012	-5.86248e-012	-2.9615e-012	1.34479e-013	2.49959e-012	6.06198e-012	8.89428e-012	1.23866e-011	1.47594e-011	1.75959e-011	2.02373e-011	2.32063e-011	2.59171e-011	2.87598e-011	3.13402e-011	3.41829e-011	3.70324e-011	3.94145e-011	4.24632e-011	4.48498e-011	
CoarseR94	-7.72029e-012	-5.09169e-012	-1.60667e-012	1.02453e-012	4.31742e-012	6.87841e-012	1.04427e-011	1.30807e-011	1.65745e-011	1.90179e-011	2.17864e-011	2.46263e-011	2.72675e-011	3.01119e-011	3.2687e-011	3.53371e-011	3.81164e-011	4.08291e-011	4.36117e-011	4.6466e-011	4.8851e-011	
CoarseR95	-4.05793e-012	-7.71015e-013	2.52063e-012	5.15383e-012	8.447e-012	1.10831e-011	1.43077e-011	1.69472e-011	2.02457e-011	2.24236e-011	2.59947e-011	2.81026e-011	3.11412e-011	3.37873e-011	3.70984e-011	3.94137e-011	4.21268e-011	4.47104e-011	4.72961e-011	5.00827e-011	5.25381e-011	
CoarseR96	3.58185e-013	3.45383e-012	6.47739e-012	9.11172e-012	1.22131e-011	1.5043e-011	1.83431e-011	2.09836e-011	2.42825e-011	2.66587e-011	2.96946e-011	3.25391e-011	3.53812e-011	3.82942e-011	4.10722e-011	4.3722e-011	4.65712e-011	4.86926e-011	5.20076e-011	5.43975e-011	5.6724e-011	
CoarseR97	4.06095e-012	7.15759e-012	1.06493e-011	1.30141e-011	1.61155e-011	1.90219e-011	2.22488e-011	2.46188e-011	2.81901e-011	3.08346e-011	3.36058e-011	3.62523e-011	3.91e-011	4.1942e-011	4.45225e-011	4.71736e-011	4.99568e-011	5.28747e-011	5.54625e-011	5.82519e-011	6.04453e-011	
CoarseR98	7.9836e-012	1.10787e-011	1.43752e-011	1.70132e-011	2.00401e-011	2.28773e-011	2.59085e-011	2.88183e-011	3.2119e-011	3.42323e-011	3.70723e-011	3.99187e-011	4.30334e-011	4.58783e-011	4.84574e-011	5.11126e-011	5.36946e-011	5.65524e-011	5.91375e-011	6.17284e-011	6.43866e-011	
CoarseR99	1.19192e-011	1.49483e-011	1.80452e-011	2.06845e-011	2.41825e-011	2.68179e-011	2.98566e-011	3.29655e-011	3.60017e-011	3.83761e-011	4.10241e-011	4.3673e-011	4.69168e-011	4.95685e-011	5.24159e-011	5.46026e-011	5.73915e-011	5.99764e-011	6.28976e-011	6.54892e-011	6.78146e-011	
CoarseR100	1.56068e-011	1.86378e-011	2.22056e-011	2.4305e-011	2.78745e-011	3.02516e-011	3.37503e-011	3.61902e-011	3.96997e-011	4.18833e-011	4.49242e-011	4.75749e-011	5.04277e-011	5.32095e-011	5.60689e-011	5.84605e-011	6.12525e-011	6.38516e-011	6.67049e-011	6.92998e-011	7.19628e-011	
MinCout:	-1.05409e-013	CoarseR:	90	CoarseC:	128

	FineC0	FineC10	FineC20	FineC30	FineC40	FineC50	FineC60	FineC70	FineC80	FineC90	FineC100	FineC110	FineC120	FineC130	FineC140	FineC150	FineC160	FineC170	FineC180	FineC190	FineC200	FineC210	FineC220	FineC230	FineC240	FineC250	
FineR0	-2.24513e-010	-1.86825e-010	-1.62461e-010	-1.43668e-010	-1.29163e-010	-1.17128e-010	-1.07481e-010	-9.91899e-011	-9.23814e-011	-8.62283e-011	-8.12655e-011	-7.66747e-011	-7.27316e-011	-6.88652e-011	-6.62224e-011	-6.32073e-011	-6.03815e-011	-5.81317e-011	-5.57648e-011	-5.42465e-011	-5.22624e-011	-5.05477e-011	-4.89621e-011	-4.74408e-011	-4.63812e-011	-4.47943e-011	
FineR10	-1.91999e-010	-1.54441e-010	-1.30824e-010	-1.12487e-010	-9.78936e-011	-8.61185e-011	-7.66405e-011	-6.85361e-011	-6.18077e-011	-5.58378e-011	-5.10564e-011	-4.65323e-011	-4.25161e-011	-3.91069e-011	-3.58862e-011	-3.27873e-011	-3.03441e-011	-2.82353e-011	-2.62539e-011	-2.40083e-011	-2.20977e-011	-2.05022e-011	-1.9052e-011	-1.75293e-011	-1.64689e-011	-1.51469e-011	
FineR20	-1.76882e-010	-1.40333e-010	-1.15994e-010	-9.82739e-011	-8.39505e-011	-7.23541e-011	-6.29572e-011	-5.48531e-011	-4.82287e-011	-4.23382e-011	-3.71696e-011	-3.2765e-011	-2.86245e-011	-2.53307e-011	-2.21088e-011	-1.92773e-011	-1.6639e-011	-1.44623e-011	-1.22823e-011	-1.02995e-011	-8.58164e-012	-7.06018e-012	-5.73333e-012	-4.21527e-012	-2.88729e-012	-1.29594e-012	
FineR30	-1.68491e-010	-1.31839e-010	-1.08318e-010	-8.96033e-011	-7.60017e-011	-6.41309e-011	-5.48183e-011	-4.68997e-011	-4.00853e-011	-3.41894e-011	-2.94037e-011	-2.48784e-011	-2.08589e-011	-1.71771e-011	-1.41523e-011	-1.17073e-011	-8.67681e-012	-6.49936e-012	-4.51574e-012	-2.33545e-012	-8.14824e-013	7.06518e-013	2.4271e-012	3.48687e-012	5.07873e-012	6.13973e-012	
FineR40	-1.63467e-010	-1.26369e-010	-1.02832e-010	-8.44852e-011	-7.05122e-011	-5.88315e-011	-4.92497e-011	-4.15987e-011	-3.4787e-011	-2.91568e-011	-2.43672e-011	-1.95019e-011	-1.56298e-011	-1.21413e-011	-9.04223e-012	-6.47483e-012	-3.63895e-012	-1.4609e-012	5.21251e-013	2.50609e-012	4.29395e-012	5.74626e-012	7.46736e-012	8.86018e-012	9.92035e-012	1.14457e-011	
FineR50	-1.59409e-010	-1.22858e-010	-9.92349e-011	-8.12423e-011	-6.69065e-011	-5.5313e-011	-4.56451e-011	-3.79952e-011	-3.10676e-011	-2.55538e-011	-2.05745e-011	-1.57059e-011	-1.20272e-011	-8.61253e-012	-5.51136e-012	-2.87301e-012	-2.33632e-013	2.14116e-012	4.32075e-012	6.10781e-012	8.02263e-012	9.81225e-012	1.10676e-011	1.26612e-011	1.36512e-011	1.47792e-011	
FineR60	-1.56735e-010	-1.19723e-010	-9.64664e-011	-7.81074e-011	-6.42348e-011	-5.24488e-011	-4.32411e-011	-3.51292e-011	-2.85846e-011	-2.26866e-011	-1.77042e-011	-1.34921e-011	-9.42456e-012	-5.864e-012	-3.10421e-012	1.94378e-013	2.70975e-012	4.81735e-012	6.53313e-012	8.71415e-012	1.02347e-011	1.22209e-011	1.35467e-011	1.48057e-011	1.65954e-011	1.7723e-011	
FineR70	-1.54487e-010	-1.17553e-010	-9.42095e-011	-7.62184e-011	-6.19701e-011	-5.0374e-011	-4.08913e-011	-3.32433e-011	-2.65056e-011	-2.03396e-011	-1.56266e-011	-1.10249e-011	-7.00454e-012	-3.7848e-012	-6.84552e-013	2.14941e-012	4.52147e-012	7.16425e-012	9.0768e-012	1.1062e-011	1.25827e-011	1.43031e-011	1.56262e-011	1.68852e-011	1.86757e-011	1.96025e-011	
FineR80	-1.52926e-010	-1.16085e-010	-9.24647e-011	-7.4664e-011	-6.01459e-011	-4.88151e-011	-3.94171e-011	-3.14981e-011	-2.47633e-011	-1.88633e-011	-1.4074e-011	-9.47401e-012	-5.72163e-012	-2.23418e-012	7.21427e-013	3.62771e-012	6.46468e-012	8.64321e-012	1.10904e-011	1.25414e-011	1.43292e-011	1.60497e-011	1.75721e-011	1.86318e-011	2.00252e-011	2.10859e-011	
FineR90	-1.51428e-010	-1.14421e-010	-9.09759e-011	-7.29866e-011	-5.92033e-011	-4.76018e-011	-3.79328e-011	-2.9825e-011	-2.35498e-011	-1.78433e-011	-1.27862e-011	-7.992e-012	-4.31302e-012	-1.02037e-012	2.47046e-012	5.30554e-012	7.67839e-012	1.01242e-011	1.18409e-011	1.38238e-011	1.55429e-011	1.70643e-011	1.88531e-011	2.0179e-011	2.09724e-011	2.27663e-011	
FineR100	-1.503e-010	-1.1346e-010	-9.0115e-011	-7.18603e-011	-5.79778e-011	-4.6192e-011	-3.69807e-011	-2.91439e-011	-2.21392e-011	-1.64305e-011	-1.18372e-011	-7.04432e-012	-3.09661e-012	1.22819e-013	3.41831e-012	6.05637e-012	8.62566e-012	1.10712e-011	1.3253e-011	1.49689e-011	1.69551e-011	1.8676e-011	1.9802e-011	2.11279e-011	2.26513e-011	2.39786e-011	
FineR110	-1.49166e-010	-1.12602e-010	-8.8703e-011	-7.07124e-011	-5.66468e-011	-4.55083e-011	-3.56519e-011	-2.80018e-011	-2.11873e-011	-1.55564e-011	-1.0499e-011	-5.89926e-012	-2.41506e-012	1.26761e-012	4.09949e-012	7.12999e-012	9.77138e-012	1.195e-011	1.4199e-011	1.59167e-011	1.76359e-011	1.91572e-011	2.06793e-011	2.2272e-011	2.3529e-011	2.48565e-011	
FineR120	-1.48382e-010	-1.11446e-010	-8.82775e-011	-7.02891e-011	-5.62329e-011	-4.44392e-011	-3.52326e-011	-2.73142e-011	-2.05763e-011	-1.4871e-011	-9.62145e-012	-5.02171e-012	-1.61086e-012	1.87726e-012	5.17298e-012	7.61534e-012	1.01844e-011	1.28281e-011	1.50079e-011	1.65275e-011	1.80479e-011	2.00355e-011	2.15576e-011	2.30833e-011	2.42103e-011	2.55339e-011	
FineR130	-1.47668e-010	-1.10829e-010	-8.74843e-011	-6.94097e-011	-5.56186e-011	-4.35608e-011	-3.43496e-011	-2.6702e-011	-1.99676e-011	-1.40676e-011	-9.01041e-012	-4.41093e-012	-7.3217e-013	2.75554e-012	5.31934e-012	8.22489e-012	1.12589e-011	1.34374e-011	1.54211e-011	1.76025e-011	1.93897e-011	2.08436e-011	2.24334e-011	2.36925e-011	2.47526e-011	2.58792e-011	
FineR140	-1.46877e-010	-1.10037e-010	-8.65921e-011	-6.87945e-011	-5.45482e-011	-4.31331e-011	-3.37412e-011	-2.571e-011	-1.91644e-011	-1.36502e-011	-8.32506e-012	-3.99486e-012	-1.21384e-013	3.36603e-012	6.39402e-012	9.22849e-012	1.16726e-011	1.40487e-011	1.60307e-011	1.8212e-011	1.97323e-011	2.12534e-011	2.27779e-011	2.45679e-011	2.56279e-011	2.64222e-011	
FineR150	-1.46254e-010	-1.0988e-010	-8.60701e-011	-6.84506e-011	-5.42046e-011	-4.26034e-011	-3.33932e-011	-2.55567e-011	-1.87431e-011	-1.30383e-011	-8.05622e-012	-3.45715e-012	4.16173e-013	3.70856e-012	7.00416e-012	9.83905e-012	1.22112e-011	1.48545e-011	1.65695e-011	1.85543e-011	2.00746e-011	2.20625e-011	2.36539e-011	2.46438e-011	2.61672e-011	2.73635e-011	
FineR160	-1.45723e-010	-1.09347e-010	-8.59034e-011	-6.7734e-011	-5.35886e-011	-4.22597e-011	-3.28616e-011	-2.49433e-011	-1.80148e-011	-1.23085e-011	-7.44448e-012	-3.11411e-012	1.02718e-012	4.51551e-012	7.61455e-012	1.03771e-011	1.25539e-011	1.49993e-011	1.7179e-011	1.91637e-011	2.08806e-011	2.21376e-011	2.41935e-011	2.50527e-011	2.65097e-011	2.81038e-011	
FineR170	-1.45541e-010	-1.08813e-010	-8.53683e-011	-6.72976e-011	-5.33172e-011	-4.14521e-011	-3.23247e-011	-2.44061e-011	-1.78623e-011	-1.1696e-011	-7.17707e-012	-2.11322e-012	1.37081e-012	4.85795e-012	8.08147e-012	1.09875e-011	1.33603e-011	1.60036e-011	1.77185e-011	1.97033e-011	2.14226e-011	2.29439e-011	2.42689e-011	2.55252e-011	2.71188e-011	2.81793e-011	
FineR180	-1.45009e-010	-1.08003e-010	-8.46559e-011	-6.7035e-011	-5.29725e-011	-4.09155e-011	-3.19808e-011	-2.40625e-011	-1.71338e-011	-1.1233e-011	-6.8326e-012	-2.23283e-012	1.71355e-012	5.12838e-012	8.15584e-012	1.10616e-011	1.38988e-011	1.62753e-011	1.77928e-011	1.95087e-011	2.17624e-011	2.32834e-011	2.48079e-011	2.6398e-011	2.76579e-011	2.84523e-011	
FineR190	-1.44472e-010	-1.08193e-010	-8.42975e-011	-6.6499e-011	-5.27083e-011	-4.08364e-011	-3.14437e-011	-2.36015e-011	-1.67874e-011	-1.10819e-011	-6.37002e-012	-1.96381e-012	2.2518e-012	5.66681e-012	8.76706e-012	1.15299e-011	1.39742e-011	1.66177e-011	1.85312e-011	2.03177e-011	2.17705e-011	2.35585e-011	2.48848e-011	2.66077e-011	2.76679e-011	2.89307e-011	
FineR200	-1.44186e-010	-1.07806e-010	-8.4254e-011	-6.59838e-011	-5.19063e-011	-4.08372e-011	-3.13507e-011	-2.33148e-011	-1.6492e-011	-1.05846e-011	-5.8656e-012	-1.45339e-012	2.49879e-012	5.79494e-012	9.09458e-012	1.16643e-011	1.43077e-011	1.67561e-011	1.887e-011	2.06586e-011	2.21807e-011	2.41701e-011	2.54271e-011	2.70222e-011	2.82808e-011	2.91419e-011	
FineR210	-1.43895e-010	-1.07374e-010	-8.38147e-011	-6.57206e-011	-5.19139e-011	-4.02208e-011	-3.12725e-011	-2.27735e-011	-1.61424e-011	-1.05087e-011	-5.63944e-012	-9.1453e-013	2.57354e-012	6.06484e-012	9.36437e-012	1.22027e-011	1.43809e-011	1.70256e-011	1.92099e-011	2.09279e-011	2.26494e-011	2.44405e-011	2.5767e-011	2.7094e-011	2.86189e-011	2.99484e-011	
FineR220	-1.43341e-010	-1.06926e-010	-8.34557e-011	-6.56386e-011	-5.13766e-011	-3.97623e-011	-3.0353e-011	-2.26961e-011	-1.58743e-011	-1.0238e-011	-5.17541e-012	-5.70945e-013	3.11174e-012	6.87189e-012	9.43824e-012	1.25439e-011	1.51866e-011	1.72968e-011	1.94794e-011	2.10005e-011	2.29886e-011	2.47794e-011	2.60362e-011	2.75635e-011	2.8888e-011	2.99497e-011	
FineR230	-1.43249e-010	-1.06736e-010	-8.34564e-011	-6.52735e-011	-5.12886e-011	-3.99487e-011	-3.04635e-011	-2.24249e-011	-1.58736e-011	-9.89063e-012	-5.1746e-012	-7.64534e-013	3.4549e-012	6.74917e-012	9.77941e-012	1.26166e-011	1.52574e-011	1.74373e-011	1.96187e-011	2.11377e-011	2.35898e-011	2.48451e-011	2.64373e-011	2.76942e-011	2.90882e-011	3.0149e-011	
FineR240	-1.43285e-010	-1.06342e-010	-8.3167e-011	-6.49911e-011	-5.06486e-011	-3.92358e-011	-3.01054e-011	-2.21842e-011	-1.54434e-011	-9.73658e-012	-4.67826e-012	-3.46048e-013	3.60178e-012	6.8221e-012	1.03153e-011	1.29534e-011	1.53283e-011	1.77747e-011	1.97569e-011	2.18709e-011	2.36585e-011	2.51801e-011	2.65052e-011	2.78324e-011	2.95565e-011	3.06844e-011	
FineR250	-1.43081e-010	-1.06067e-010	-8.28927e-011	-6.4817e-011	-5.05606e-011	-3.89641e-011	-2.97516e-011	-2.16429e-011	-1.5095e-011	-9.73569e-012	-4.67727e-012	-7.66562e-014	4.14009e-012	7.36006e-012	1.01917e-011	1.32946e-011	1.56678e-011	1.7776e-011	2.02251e-011	2.20115e-011	2.35319e-011	2.5519e-011	2.67746e-011	2.81003e-011	2.9428e-011	3.06859e-011	
MinCout:	-7.66562e-014	FineR:	250	FineC:	110

	FineC120	FineC121	FineC122	FineC123	FineC124	FineC125	FineC126	FineC127	FineC128	FineC129	FineC130	FineC131	FineC132	FineC133	FineC134	FineC135	FineC136	FineC137	FineC138	FineC139	FineC140	
FineR90	-4.58132e-012	-4.11828e-012	-3.72828e-012	-3.46e-012	-3.26447e-012	-2.60601e-012	-2.143e-012	-1.94741e-012	-1.28865e-012	-1.09331e-012	-8.97863e-013	-1.6632e-013	-4.34071e-013	2.25007e-013	2.25007e-013	6.16227e-013	1.15216e-012	1.5436e-012	1.73941e-012	1.73941e-012	2.20286e-012	
FineR91	-4.11861e-012	-3.9238e-012	-3.46032e-012	-2.99688e-012	-2.80157e-012	-2.33815e-012	-2.33815e-012	-1.94771e-012	-1.48427e-012	-1.28865e-012	-8.97863e-013	-3.6197e-013	-2.38782e-013	2.24728e-013	4.92733e-013	8.83964e-013	1.15193e-012	1.61534e-012	1.81127e-012	2.20287e-012	2.47096e-012	
FineR92	-4.31406e-012	-4.1193e-012	-3.46091e-012	-2.92415e-012	-2.72917e-012	-2.6068e-012	-2.14329e-012	-1.67989e-012	-1.21643e-012	-5.57596e-013	-5.57596e-013	-4.34506e-013	-9.39748e-014	4.92739e-013	7.60458e-013	9.5621e-013	1.15193e-012	1.61552e-012	1.54335e-012	2.47076e-012	2.47076e-012	
FineR93	-4.04641e-012	-3.58297e-012	-3.3878e-012	-2.92439e-012	-2.72917e-012	-2.33885e-012	-2.07065e-012	-1.60725e-012	-1.21668e-012	-9.48583e-013	-5.57828e-013	-9.40445e-014	1.01386e-013	4.92496e-013	7.60513e-013	9.5621e-013	1.15204e-012	1.61552e-012	1.81148e-012	2.27497e-012	2.73841e-012	
FineR94	-4.0467e-012	-3.58323e-012	-3.04678e-012	-2.99791e-012	-2.53438e-012	-2.07102e-012	-1.87572e-012	-1.41223e-012	-1.14411e-012	-7.53419e-013	-4.85153e-013	1.01342e-013	1.01167e-013	5.6484e-013	1.02829e-012	1.02846e-012	1.68753e-012	1.88323e-012	1.88323e-012	2.73876e-012	2.54281e-012	
FineR95	-3.77863e-012	-3.31551e-012	-2.85207e-012	-2.72989e-012	-1.99821e-012	-1.99821e-012	-1.33962e-012	-1.53483e-012	-9.48777e-013	-4.85336e-013	-2.17328e-013	1.73585e-013	1.73585e-013	8.32651e-013	1.10058e-012	1.02829e-012	1.95528e-012	1.68753e-012	2.41917e-012	2.81084e-012	3.00646e-012	
FineR96	-3.70569e-012	-3.31573e-012	-2.85207e-012	-2.85207e-012	-2.19366e-012	-1.99841e-012	-1.5351e-012	-1.4125e-012	-9.48985e-013	-4.85457e-013	-2.90061e-013	2.46002e-013	3.69008e-013	1.29621e-012	1.29621e-012	1.2239e-012	1.49186e-012	1.88329e-012	2.34723e-012	2.81072e-012	2.54298e-012	
FineR97	-3.70589e-012	-3.51091e-012	-3.04746e-012	-2.38908e-012	-2.38908e-012	-1.73056e-012	-1.5351e-012	-1.14453e-012	-8.76396e-013	-2.17546e-013	-2.2151e-014	2.45881e-013	6.36893e-013	6.37038e-013	1.29621e-012	1.29621e-012	1.95554e-012	2.1515e-012	2.615e-012	2.88284e-012	2.81072e-012	
FineR98	-3.24282e-012	-3.24282e-012	-2.58448e-012	-2.58448e-012	-1.92599e-012	-1.73072e-012	-1.46256e-012	-1.07189e-012	-6.08461e-013	5.03644e-014	2.45884e-013	2.45884e-013	9.04989e-013	1.36845e-012	1.36853e-012	1.4919e-012	1.83192e-012	2.22333e-012	2.88277e-012	2.615e-012	3.07846e-012	
FineR99	-3.17004e-012	-2.90183e-012	-2.58464e-012	-2.58464e-012	-1.92614e-012	-1.73085e-012	-1.26736e-012	-1.07204e-012	-6.08582e-013	5.0342e-014	2.45884e-013	2.45884e-013	4.41316e-013	9.04989e-013	1.36845e-012	1.83217e-012	2.02771e-012	2.68712e-012	2.41931e-012	2.88277e-012	3.34671e-012	
FineR100	-3.43833e-012	-2.97521e-012	-2.78001e-012	-2.12154e-012	-1.85333e-012	-1.19476e-012	-9.99351e-013	-9.99351e-013	-3.40598e-013	1.22819e-013	3.18301e-013	7.09411e-013	9.77405e-013	1.17289e-012	1.44082e-012	1.83211e-012	2.29555e-012	2.29555e-012	2.61525e-012	2.88317e-012	3.34667e-012	
FineR101	-3.17053e-012	-2.97535e-012	-2.70707e-012	-2.31679e-012	-1.58526e-012	-1.39007e-012	-9.99523e-013	-5.36043e-013	1.2282e-013	-7.26131e-014	5.86372e-013	5.13858e-013	7.81876e-013	1.44102e-012	1.63654e-012	1.83211e-012	2.09998e-012	2.75933e-012	2.68749e-012	3.151e-012	3.41881e-012	
FineR102	-2.90236e-012	-2.70718e-012	-1.97582e-012	-2.04868e-012	-1.78052e-012	-1.12202e-012	-9.99622e-013	-4.63381e-013	-7.26369e-014	1.2282e-013	3.9084e-013	7.81829e-013	1.24528e-012	1.24528e-012	1.63654e-012	1.90445e-012	2.29587e-012	2.75933e-012	3.22319e-012	3.22319e-012	3.6866e-012	
FineR103	-2.82938e-012	-2.90236e-012	-2.43925e-012	-2.049e-012	-1.58551e-012	-1.12206e-012	-9.99622e-013	-2.6807e-013	-3.40756e-013	-7.26369e-014	8.54343e-013	1.0498e-012	1.51342e-012	1.44098e-012	1.90444e-012	2.36819e-012	2.36819e-012	2.75973e-012	3.02759e-012	3.68714e-012	4.15057e-012	
FineR104	-2.90281e-012	-2.43931e-012	-2.1711e-012	-1.78085e-012	-1.31739e-012	-8.54102e-013	-6.58767e-013	-4.63406e-013	-2.6807e-013	1.95396e-013	6.58899e-013	1.04995e-012	1.24545e-012	1.51342e-012	1.90472e-012	2.3682e-012	2.3682e-012	3.02762e-012	3.02759e-012	3.68719e-012	3.88281e-012	
FineR105	-2.82942e-012	-2.36635e-012	-2.17113e-012	-1.51269e-012	-1.24455e-012	-1.12224e-012	-6.58767e-013	-1.95385e-013	2.68033e-013	6.58912e-013	8.54469e-013	1.31797e-012	1.51365e-012	1.78137e-012	1.97713e-012	2.44057e-012	2.83206e-012	3.02762e-012	3.02762e-012	3.49153e-012	3.68719e-012	
FineR106	-2.56158e-012	-2.36637e-012	-1.97616e-012	-1.7809e-012	-1.24455e-012	-8.54104e-013	-5.86007e-013	-1.95373e-013	2.6807e-013	2.68033e-013	1.12253e-012	1.31797e-012	1.58593e-012	2.24509e-012	1.97713e-012	2.44057e-012	2.83206e-012	2.83206e-012	3.49159e-012	3.22368e-012	3.95506e-012	
FineR107	-2.56159e-012	-2.17145e-012	-1.90323e-012	-1.70797e-012	-1.24453e-012	-5.85971e-013	-3.90721e-013	-1.95373e-013	4.63529e-013	6.59011e-013	9.26957e-013	1.39051e-012	1.58599e-012	2.04964e-012	2.24517e-012	2.70891e-012	2.63652e-012	3.29601e-012	3.56385e-012	3.7595e-012	4.02727e-012	
FineR108	-2.56159e-012	-2.09815e-012	-1.90322e-012	-1.24471e-012	-5.13162e-013	-9.76433e-013	-3.90721e-013	7.27348e-014	3.40756e-013	7.31586e-013	1.12253e-012	1.65853e-012	1.78169e-012	1.85391e-012	2.24517e-012	2.70891e-012	2.90449e-012	3.10039e-012	3.56385e-012	3.7595e-012	4.02727e-012	
FineR109	-2.29333e-012	-1.82993e-012	-1.63499e-012	-1.63503e-012	-1.17165e-012	-7.81247e-013	-3.17938e-013	-1.22577e-013	7.27348e-014	9.27106e-013	1.19511e-012	1.65853e-012	1.85421e-012	2.31763e-012	2.31763e-012	2.51305e-012	3.17233e-012	3.4401e-012	3.56385e-012	3.83162e-012	4.29514e-012	
FineR110	-2.56159e-012	-2.02514e-012	-1.63499e-012	-1.17158e-012	-7.08389e-013	-3.17938e-013	-3.17839e-013	-1.22577e-013	5.36239e-013	8.04247e-013	9.99668e-013	1.26761e-012	1.85431e-012	1.85401e-012	2.31763e-012	2.97688e-012	3.17246e-012	3.63627e-012	3.56396e-012	4.09949e-012	4.22357e-012	
MinCout:	-2.2151e-014	FineR:	97	FineC:	130

