	CoarseC0	CoarseC10	CoarseC20	CoarseC30	CoarseC40	CoarseC50	CoarseC60	CoarseC70	CoarseC80	CoarseC90	CoarseC100	CoarseC110	CoarseC120	CoarseC130	CoarseC140	CoarseC150	CoarseC160	CoarseC170	CoarseC180	CoarseC190	CoarseC200	CoarseC210	CoarseC220	CoarseC230	CoarseC240	CoarseC250	
CoarseR0	-1.79139e-009	-1.77872e-009	-1.76254e-009	-1.74063e-009	-1.71584e-009	-1.68812e-009	-1.65695e-009	-1.6236e-009	-1.58674e-009	-1.54803e-009	-1.50435e-009	-1.45187e-009	-1.40113e-009	-1.35428e-009	-1.31047e-009	-1.26907e-009	-1.23055e-009	-1.19403e-009	-1.16007e-009	-1.12745e-009	-1.09739e-009	-1.06856e-009	-1.04198e-009	-1.01734e-009	-9.93729e-010	-9.71902e-010	
CoarseR10	-1.37573e-009	-1.35875e-009	-1.33897e-009	-1.3158e-009	-1.28949e-009	-1.26099e-009	-1.2298e-009	-1.19558e-009	-1.15843e-009	-1.11802e-009	-1.0661e-009	-1.01708e-009	-9.72021e-010	-9.30206e-010	-8.90924e-010	-8.5371e-010	-8.19004e-010	-7.86082e-010	-7.5496e-010	-7.26285e-010	-6.99278e-010	-6.73839e-010	-6.50311e-010	-6.27978e-010	-6.0692e-010	-5.87456e-010	
CoarseR20	-1.12241e-009	-1.10346e-009	-1.08232e-009	-1.05784e-009	-1.03093e-009	-1.00176e-009	-9.69343e-010	-9.34321e-010	-8.9507e-010	-8.45484e-010	-7.96436e-010	-7.51493e-010	-7.10206e-010	-6.71663e-010	-6.35305e-010	-6.00793e-010	-5.68221e-010	-5.383e-010	-5.09782e-010	-4.83789e-010	-4.59123e-010	-4.36293e-010	-4.14298e-010	-3.94083e-010	-3.74818e-010	-3.56771e-010	
CoarseR30	-9.53648e-010	-9.3308e-010	-9.10641e-010	-8.85141e-010	-8.57099e-010	-8.2608e-010	-7.9308e-010	-7.55916e-010	-7.08412e-010	-6.59119e-010	-6.13646e-010	-5.71867e-010	-5.32949e-010	-4.96573e-010	-4.61782e-010	-4.2956e-010	-3.99412e-010	-3.71112e-010	-3.4511e-010	-3.20634e-010	-2.9775e-010	-2.76138e-010	-2.55993e-010	-2.37248e-010	-2.19289e-010	-2.02446e-010	
CoarseR40	-8.31433e-010	-8.09368e-010	-7.85424e-010	-7.5865e-010	-7.29272e-010	-6.97618e-010	-6.62236e-010	-6.19596e-010	-5.68644e-010	-5.22048e-010	-4.78874e-010	-4.39107e-010	-4.01513e-010	-3.66882e-010	-3.33993e-010	-3.0334e-010	-2.7509e-010	-2.48609e-010	-2.242e-010	-2.01004e-010	-1.79197e-010	-1.59066e-010	-1.40267e-010	-1.22277e-010	-1.05569e-010	-8.99606e-011	
CoarseR50	-7.39168e-010	-7.15421e-010	-6.90404e-010	-6.62436e-010	-6.31514e-010	-5.97961e-010	-5.60633e-010	-5.1007e-010	-4.61082e-010	-4.16757e-010	-3.75204e-010	-3.36793e-010	-3.00573e-010	-2.66868e-010	-2.35555e-010	-2.07015e-010	-1.80012e-010	-1.54769e-010	-1.31711e-010	-1.0977e-010	-8.93238e-011	-6.97034e-011	-5.18578e-011	-3.52547e-011	-1.94499e-011	-4.73441e-012	
CoarseR60	-6.67573e-010	-6.42368e-010	-6.15825e-010	-5.86311e-010	-5.54286e-010	-5.19165e-010	-4.74647e-010	-4.23462e-010	-3.76424e-010	-3.33718e-010	-2.9355e-010	-2.54855e-010	-2.20237e-010	-1.88052e-010	-1.58598e-010	-1.30293e-010	-1.04653e-010	-8.07838e-011	-5.82068e-011	-3.76206e-011	-1.80095e-011	2.25282e-013	1.69992e-011	3.31503e-011	4.83007e-011	6.23731e-011	
CoarseR70	-6.09308e-010	-5.82495e-010	-5.54961e-010	-5.24333e-010	-4.90457e-010	-4.52998e-010	-4.02138e-010	-3.52472e-010	-3.06796e-010	-2.65241e-010	-2.24853e-010	-1.87873e-010	-1.54418e-010	-1.23801e-010	-9.47825e-011	-6.79516e-011	-4.34205e-011	-2.01828e-011	1.27812e-012	2.12441e-011	3.99631e-011	5.76013e-011	7.39738e-011	8.92758e-011	1.03303e-010	1.16706e-010	
CoarseR80	-5.6102e-010	-5.33048e-010	-5.03982e-010	-4.71978e-010	-4.36823e-010	-3.93662e-010	-3.41412e-010	-2.93016e-010	-2.48409e-010	-2.06942e-010	-1.67554e-010	-1.31873e-010	-9.93234e-011	-6.94667e-011	-4.17785e-011	-1.58559e-011	8.10988e-012	3.05141e-011	5.13515e-011	7.07301e-011	8.85479e-011	1.05803e-010	1.21284e-010	1.35928e-010	1.49329e-010	1.62061e-010	
CoarseR90	-5.2021e-010	-4.90681e-010	-4.60588e-010	-4.27221e-010	-3.90059e-010	-3.40874e-010	-2.89315e-010	-2.42545e-010	-1.98072e-010	-1.57113e-010	-1.18517e-010	-8.39181e-011	-5.2177e-011	-2.27437e-011	3.94165e-012	2.8796e-011	5.23448e-011	7.41316e-011	9.37407e-011	1.1295e-010	1.29926e-010	1.46281e-010	1.61401e-010	1.75174e-010	1.88332e-010	2.00682e-010	
CoarseR100	-4.84868e-010	-4.53901e-010	-4.22402e-010	-3.87656e-010	-3.48581e-010	-2.95118e-010	-2.4413e-010	-1.97775e-010	-1.53826e-010	-1.13168e-010	-7.59081e-011	-4.19036e-011	-1.0954e-011	1.7425e-011	4.35022e-011	6.80077e-011	9.07444e-011	1.11444e-010	1.3109e-010	1.49242e-010	1.66042e-010	1.81789e-010	1.96471e-010	2.09562e-010	2.22079e-010	2.33974e-010	
CoarseR110	-4.53891e-010	-4.22015e-010	-3.89412e-010	-3.53165e-010	-3.08734e-010	-2.54627e-010	-2.05088e-010	-1.59051e-010	-1.14883e-010	-7.4833e-011	-3.83375e-011	-5.3886e-012	2.49723e-011	5.25515e-011	7.82844e-011	1.02169e-010	1.24292e-010	1.44414e-010	1.63901e-010	1.81409e-010	1.97574e-010	2.12886e-010	2.26873e-010	2.39554e-010	2.51605e-010	2.62804e-010	
CoarseR120	-4.26573e-010	-3.93358e-010	-3.59833e-010	-3.21797e-010	-2.71944e-010	-2.18836e-010	-1.69794e-010	-1.23411e-010	-8.009e-011	-4.08907e-011	-4.89819e-012	2.74608e-011	5.70158e-011	8.39225e-011	1.08829e-010	1.32564e-010	1.54122e-010	1.74116e-010	1.92462e-010	2.09748e-010	2.25501e-010	2.40164e-010	2.5395e-010	2.66166e-010	2.77527e-010	2.88481e-010	
CoarseR130	-4.02254e-010	-3.68208e-010	-3.33127e-010	-2.93812e-010	-2.39604e-010	-1.86552e-010	-1.384e-010	-9.20058e-011	-4.91514e-011	-1.08225e-011	2.48616e-011	5.66341e-011	8.55833e-011	1.12212e-010	1.36755e-010	1.5987e-010	1.80743e-010	2.00313e-010	2.18513e-010	2.35152e-010	2.50433e-010	2.64665e-010	2.77514e-010	2.89701e-010	3.00836e-010	3.11076e-010	
CoarseR140	-3.80572e-010	-3.45183e-010	-3.09178e-010	-2.67418e-010	-2.10368e-010	-1.58274e-010	-1.09495e-010	-6.3366e-011	-2.11932e-011	1.66306e-011	5.15309e-011	8.3167e-011	1.11577e-010	1.37499e-010	1.61971e-010	1.84214e-010	2.05166e-010	2.24341e-010	2.41841e-010	2.58284e-010	2.73166e-010	2.8662e-010	2.99721e-010	3.11002e-010	3.21565e-010	3.31283e-010	
CoarseR150	-3.60357e-010	-3.2419e-010	-2.86767e-010	-2.40285e-010	-1.83588e-010	-1.31913e-010	-8.32373e-011	-3.72107e-011	4.6658e-012	4.17021e-011	7.60129e-011	1.07012e-010	1.3527e-010	1.60718e-010	1.84727e-010	2.06837e-010	2.27353e-010	2.45828e-010	2.63166e-010	2.79179e-010	2.93777e-010	3.07295e-010	3.19643e-010	3.3065e-010	3.40745e-010	3.49926e-010	
CoarseR160	-3.41977e-010	-3.04357e-010	-2.65953e-010	-2.15558e-010	-1.59206e-010	-1.07806e-010	-5.86553e-011	-1.27698e-011	2.83008e-011	6.50786e-011	9.89331e-011	1.29182e-010	1.57016e-010	1.82559e-010	2.06186e-010	2.27861e-010	2.47487e-010	2.66019e-010	2.8337e-010	2.98896e-010	3.12757e-010	3.25509e-010	3.37627e-010	3.48343e-010	3.57637e-010	3.66513e-010	
CoarseR170	-3.25216e-010	-2.86323e-010	-2.4694e-010	-1.92869e-010	-1.36506e-010	-8.53684e-011	-3.60395e-011	9.19455e-012	4.9373e-011	8.60025e-011	1.19514e-010	1.49442e-010	1.77168e-010	2.02228e-010	2.25153e-010	2.4677e-010	2.66409e-010	2.8469e-010	3.01145e-010	3.16143e-010	3.30033e-010	3.42538e-010	3.54364e-010	3.64821e-010	3.73547e-010	3.81875e-010	
CoarseR180	-3.09169e-010	-2.69644e-010	-2.28854e-010	-1.71251e-010	-1.15765e-010	-6.41322e-011	-1.46657e-011	2.95599e-011	6.97128e-011	1.05798e-010	1.39273e-010	1.68718e-010	1.96055e-010	2.20504e-010	2.43485e-010	2.64591e-010	2.83793e-010	3.01636e-010	3.18032e-010	3.32588e-010	3.46234e-010	3.58415e-010	3.69706e-010	3.79338e-010	3.88289e-010	3.96027e-010	
CoarseR190	-2.94795e-010	-2.54178e-010	-2.11634e-010	-1.51838e-010	-9.64643e-011	-4.46037e-011	4.41746e-012	4.83881e-011	8.83985e-011	1.23646e-010	1.56682e-010	1.86209e-010	2.13155e-010	2.37454e-010	2.59971e-010	2.80904e-010	3.00142e-010	3.17782e-010	3.33479e-010	3.48265e-010	3.61346e-010	3.73291e-010	3.83749e-010	3.93276e-010	4.01658e-010	4.08529e-010	
CoarseR200	-2.81366e-010	-2.39828e-010	-1.95419e-010	-1.33933e-010	-7.83836e-011	-2.62969e-011	2.20606e-011	6.61223e-011	1.05783e-010	1.40931e-010	1.73253e-010	2.02498e-010	2.29244e-010	2.53544e-010	2.75887e-010	2.96631e-010	3.15091e-010	3.32164e-010	3.47868e-010	3.62402e-010	3.75229e-010	3.86841e-010	3.97273e-010	4.06278e-010	4.13964e-010	4.20285e-010	
CoarseR210	-2.68834e-010	-2.25916e-010	-1.77853e-010	-1.16961e-010	-6.17431e-011	-9.40309e-012	3.86067e-011	8.24842e-011	1.2164e-010	1.56804e-010	1.89124e-010	2.18042e-010	2.44154e-010	2.68281e-010	2.90395e-010	3.10839e-010	3.29151e-010	3.46231e-010	3.6168e-010	3.75643e-010	3.88132e-010	3.9921e-010	4.09608e-010	4.18252e-010	4.25334e-010	4.31511e-010	
CoarseR220	-2.56756e-010	-2.1356e-010	-1.62087e-010	-1.01347e-010	-4.61482e-011	6.57913e-012	5.44043e-011	9.72671e-011	1.36503e-010	1.71485e-010	2.03733e-010	2.32231e-010	2.58386e-010	2.82068e-010	3.03984e-010	3.24514e-010	3.42728e-010	3.59572e-010	3.74443e-010	3.88635e-010	4.00592e-010	4.11313e-010	4.20833e-010	4.29428e-010	4.36445e-010	4.4141e-010	
CoarseR230	-2.45235e-010	-2.00866e-010	-1.47265e-010	-8.63103e-011	-3.14626e-011	2.17231e-011	6.92622e-011	1.12023e-010	1.50592e-010	1.8515e-010	2.16852e-010	2.45656e-010	2.72056e-010	2.95499e-010	3.1721e-010	3.3715e-010	3.55128e-010	3.71964e-010	3.86557e-010	4.0015e-010	4.12072e-010	4.22493e-010	4.31634e-010	4.39846e-010	4.45943e-010	4.51093e-010	
CoarseR240	-2.34664e-010	-1.89312e-010	-1.33144e-010	-7.22938e-011	-1.69478e-011	3.58689e-011	8.2825e-011	1.25445e-010	1.6407e-010	1.98564e-010	2.30316e-010	2.58538e-010	2.84268e-010	3.07724e-010	3.29177e-010	3.48892e-010	3.67198e-010	3.8318e-010	3.97975e-010	4.11056e-010	4.22934e-010	4.32943e-010	4.42025e-010	4.49582e-010	4.55533e-010	4.59766e-010	
CoarseR250	-2.24593e-010	-1.78341e-010	-1.19796e-010	-5.92018e-011	-3.18346e-012	4.92435e-011	9.60069e-011	1.38404e-010	1.76791e-010	2.10961e-010	2.42614e-010	2.70865e-010	2.96342e-010	3.19584e-010	3.40771e-010	3.60245e-010	3.78297e-010	3.94228e-010	4.08746e-010	4.22015e-010	4.33017e-010	4.43229e-010	4.51652e-010	4.58801e-010	4.64137e-010	4.68214e-010	
MinCout:	2.25282e-013	CoarseR:	60	CoarseC:	210

	CoarseC130	CoarseC131	CoarseC132	CoarseC133	CoarseC134	CoarseC135	CoarseC136	CoarseC137	CoarseC138	CoarseC139	CoarseC140	CoarseC141	CoarseC142	CoarseC143	CoarseC144	CoarseC145	CoarseC146	CoarseC147	CoarseC148	CoarseC149	CoarseC150	
CoarseR80	-6.9267e-011	-6.66857e-011	-6.38362e-011	-6.11321e-011	-5.8092e-011	-5.52399e-011	-5.24642e-011	-5.01314e-011	-4.68959e-011	-4.45605e-011	-4.17785e-011	-3.91871e-011	-3.66559e-011	-3.38693e-011	-3.101e-011	-2.8474e-011	-2.58778e-011	-2.35286e-011	-2.07406e-011	-1.83885e-011	-1.60524e-011	
CoarseR81	-6.43002e-011	-6.15302e-011	-5.88678e-011	-5.60952e-011	-5.31215e-011	-5.0534e-011	-4.77468e-011	-4.49017e-011	-4.21872e-011	-3.95966e-011	-3.68024e-011	-3.42099e-011	-3.14237e-011	-2.88901e-011	-2.6284e-011	-2.37576e-011	-2.11553e-011	-1.88104e-011	-1.59474e-011	-1.34148e-011	-1.08701e-011	
CoarseR82	-5.97577e-011	-5.69762e-011	-5.37479e-011	-5.09732e-011	-4.812e-011	-4.55987e-011	-4.25535e-011	-3.99637e-011	-3.7172e-011	-3.45804e-011	-3.17956e-011	-2.92643e-011	-2.66695e-011	-2.40703e-011	-2.15383e-011	-1.87459e-011	-1.62065e-011	-1.37974e-011	-1.14512e-011	-8.65332e-012	-6.30494e-012	
CoarseR83	-5.45996e-011	-5.156e-011	-4.92316e-011	-4.61895e-011	-4.31461e-011	-4.08142e-011	-3.80339e-011	-3.56996e-011	-3.26511e-011	-2.98662e-011	-2.75285e-011	-2.47406e-011	-2.1951e-011	-1.96097e-011	-1.65533e-011	-1.41455e-011	-1.16783e-011	-9.52363e-012	-6.53417e-012	-4.37758e-012	-1.57659e-012	
CoarseR84	-5.0375e-011	-4.73334e-011	-4.45576e-011	-4.19616e-011	-3.91829e-011	-3.63275e-011	-3.33549e-011	-3.10201e-011	-2.79702e-011	-2.55668e-011	-2.28453e-011	-2.00558e-011	-1.7906e-011	-1.51137e-011	-1.2251e-011	-9.97555e-012	-7.36718e-012	-4.83226e-012	-2.22936e-012	3.16159e-013	2.66569e-012	
CoarseR85	-4.56143e-011	-4.30201e-011	-3.99772e-011	-3.71985e-011	-3.44111e-011	-3.18199e-011	-2.85811e-011	-2.62515e-011	-2.36504e-011	-2.08625e-011	-1.80022e-011	-1.54689e-011	-1.28709e-011	-1.00773e-011	-7.73433e-012	-4.93778e-012	-2.39617e-012	-2.47907e-013	2.75177e-012	4.90208e-012	7.25189e-012	
CoarseR86	-4.1077e-011	-3.80339e-011	-3.54448e-011	-3.23993e-011	-2.96861e-011	-2.70195e-011	-2.43028e-011	-2.18995e-011	-1.86563e-011	-1.65807e-011	-1.35278e-011	-1.0927e-011	-8.58571e-012	-5.79043e-012	-2.98796e-012	-6.4857e-013	1.69734e-012	4.49853e-012	6.84671e-012	9.45806e-012	1.15463e-011	
CoarseR87	-3.65828e-011	-3.37279e-011	-3.1208e-011	-2.81609e-011	-2.51126e-011	-2.23278e-011	-1.98008e-011	-1.73966e-011	-1.41514e-011	-1.20048e-011	-9.02053e-012	-6.87178e-012	-4.07643e-012	-1.47496e-012	1.52029e-012	3.41028e-012	6.2116e-012	8.55924e-012	1.13635e-011	1.37134e-011	1.62588e-011	
CoarseR88	-3.18007e-011	-2.9016e-011	-2.64242e-011	-2.36407e-011	-2.07822e-011	-1.82563e-011	-1.53963e-011	-1.2607e-011	-1.02694e-011	-7.47704e-012	-4.41955e-012	-2.34159e-012	4.5556e-013	3.06212e-012	5.86209e-012	7.9455e-012	1.07487e-011	1.31623e-011	1.57097e-011	1.80602e-011	2.06698e-011	
CoarseR89	-2.75093e-011	-2.47275e-011	-2.21346e-011	-1.93464e-011	-1.65597e-011	-1.36994e-011	-1.11708e-011	-8.57273e-012	-5.51653e-012	-3.18001e-012	-3.81584e-013	1.96023e-012	4.75883e-012	7.36288e-012	9.90465e-012	1.25108e-011	1.48622e-011	1.69491e-011	1.97567e-011	2.2367e-011	2.49186e-011	
CoarseR90	-2.31964e-011	-2.04131e-011	-1.78168e-011	-1.50305e-011	-1.19782e-011	-9.64298e-012	-6.85187e-012	-4.25263e-012	-1.7199e-012	6.88498e-013	3.94165e-012	6.28391e-012	8.82328e-012	1.14287e-011	1.42318e-011	1.65788e-011	1.89292e-011	2.18002e-011	2.40878e-011	2.64395e-011	2.92516e-011	
CoarseR91	-1.91207e-011	-1.60713e-011	-1.37393e-011	-1.09514e-011	-7.9678e-012	-5.36919e-012	-2.31283e-012	9.44797e-014	2.62793e-012	5.23039e-012	7.57189e-012	1.03719e-011	1.27158e-011	1.55188e-011	1.83244e-011	2.06713e-011	2.32846e-011	2.56345e-011	2.79847e-011	3.05363e-011	3.315e-011	
CoarseR92	-1.48272e-011	-1.22319e-011	-9.44376e-012	-6.84645e-012	-3.79197e-012	-1.26276e-012	1.33783e-012	4.13343e-012	6.4733e-012	9.27206e-012	1.18101e-011	1.44163e-011	1.7091e-011	1.93716e-011	2.22422e-011	2.45266e-011	2.73362e-011	2.94879e-011	3.22999e-011	3.45918e-011	3.70117e-011	
CoarseR93	-1.07725e-011	-7.98466e-012	-5.38814e-012	-2.33233e-012	1.96202e-013	2.60357e-012	5.85609e-012	8.19533e-012	1.09942e-011	1.33359e-011	1.61379e-011	1.84821e-011	2.10925e-011	2.37017e-011	2.65096e-011	2.88583e-011	3.14071e-011	3.35641e-011	3.61782e-011	3.87316e-011	4.10862e-011	
CoarseR94	-6.43003e-012	-3.37664e-012	-7.79065e-013	1.74961e-012	4.61388e-012	7.14479e-012	9.94227e-012	1.25466e-011	1.5083e-011	1.74949e-011	2.00346e-011	2.26431e-011	2.54498e-011	2.7797e-011	3.06068e-011	3.29563e-011	3.55699e-011	3.76646e-011	4.02804e-011	4.26343e-011	4.51904e-011	
CoarseR95	-2.32963e-012	4.61612e-013	2.79614e-012	5.66078e-012	8.71946e-012	1.07944e-011	1.38559e-011	1.64612e-011	1.89982e-011	2.16057e-011	2.44106e-011	2.67558e-011	2.95639e-011	3.19116e-011	3.42603e-011	3.66161e-011	3.92309e-011	4.1783e-011	4.43999e-011	4.64987e-011	4.91177e-011	
CoarseR96	1.79606e-012	4.32197e-012	6.92354e-012	9.71945e-012	1.23199e-011	1.51189e-011	1.77246e-011	2.05267e-011	2.31311e-011	2.50171e-011	2.82809e-011	3.08241e-011	3.3175e-011	3.55923e-011	3.83365e-011	4.0955e-011	4.33071e-011	4.5664e-011	4.82191e-011	5.06419e-011	5.29403e-011	
CoarseR97	5.41029e-012	8.39911e-012	1.08073e-011	1.36005e-011	1.64004e-011	1.90059e-011	2.15417e-011	2.41501e-011	2.67594e-011	2.93002e-011	3.23705e-011	3.47217e-011	3.70696e-011	3.94186e-011	4.22333e-011	4.45847e-011	4.72057e-011	4.92992e-011	5.21201e-011	5.44765e-011	5.68386e-011	
CoarseR98	9.70336e-012	1.23013e-011	1.49035e-011	1.75084e-011	2.02366e-011	2.26483e-011	2.59098e-011	2.80613e-011	3.08628e-011	3.32127e-011	3.60174e-011	3.81034e-011	4.09167e-011	4.32666e-011	4.58835e-011	4.84354e-011	5.10545e-011	5.31525e-011	5.57738e-011	5.78709e-011	6.06965e-011	
CoarseR99	1.33577e-011	1.61549e-011	1.84915e-011	2.12921e-011	2.40895e-011	2.66974e-011	2.9307e-011	3.19174e-011	3.4458e-011	3.68741e-011	3.96148e-011	4.22298e-011	4.47774e-011	4.71974e-011	4.99458e-011	5.21075e-011	5.46621e-011	5.72837e-011	5.91824e-011	6.2008e-011	6.43667e-011	
CoarseR100	1.71577e-011	2.0026e-011	2.2363e-011	2.51649e-011	2.75046e-011	3.03099e-011	3.33787e-011	3.55257e-011	3.81385e-011	4.04841e-011	4.3494e-011	4.56451e-011	4.82619e-011	5.05514e-011	5.31707e-011	5.55236e-011	5.83457e-011	6.07011e-011	6.27981e-011	6.54266e-011	6.77929e-011	
MinCout:	9.44797e-014	CoarseR:	91	CoarseC:	137

	FineC0	FineC10	FineC20	FineC30	FineC40	FineC50	FineC60	FineC70	FineC80	FineC90	FineC100	FineC110	FineC120	FineC130	FineC140	FineC150	FineC160	FineC170	FineC180	FineC190	FineC200	FineC210	FineC220	FineC230	FineC240	FineC250	
FineR0	-2.18387e-010	-1.83191e-010	-1.60208e-010	-1.42946e-010	-1.28839e-010	-1.17494e-010	-1.08238e-010	-1.00255e-010	-9.35537e-011	-8.78211e-011	-8.30955e-011	-7.85666e-011	-7.44883e-011	-7.07973e-011	-6.78113e-011	-6.52164e-011	-6.2682e-011	-6.00956e-011	-5.81269e-011	-5.62474e-011	-5.44825e-011	-5.27902e-011	-5.08446e-011	-4.99921e-011	-4.86805e-011	-4.73819e-011	
FineR10	-1.85814e-010	-1.51585e-010	-1.29012e-010	-1.11726e-010	-9.78795e-011	-8.68986e-011	-7.76292e-011	-6.99045e-011	-6.31834e-011	-5.76303e-011	-5.27232e-011	-4.81885e-011	-4.42951e-011	-4.11195e-011	-3.78664e-011	-3.50751e-011	-3.24741e-011	-3.01346e-011	-2.79865e-011	-2.62227e-011	-2.45285e-011	-2.28329e-011	-2.13309e-011	-1.98283e-011	-1.85251e-011	-1.74775e-011	
FineR20	-1.71676e-010	-1.37328e-010	-1.15207e-010	-9.81087e-011	-8.4323e-011	-7.3069e-011	-6.40689e-011	-5.65246e-011	-4.9802e-011	-4.39866e-011	-3.93359e-011	-3.47991e-011	-3.11694e-011	-2.74681e-011	-2.44795e-011	-2.16856e-011	-1.93416e-011	-1.71936e-011	-1.48498e-011	-1.30861e-011	-1.13904e-011	-9.88886e-012	-8.19083e-012	-7.07688e-012	-5.77176e-012	-4.07106e-012	
FineR30	-1.63448e-010	-1.29564e-010	-1.07256e-010	-8.99759e-011	-7.63659e-011	-6.53723e-011	-5.62924e-011	-4.88229e-011	-4.2103e-011	-3.65461e-011	-3.15576e-011	-2.72851e-011	-2.33904e-011	-1.99484e-011	-1.66995e-011	-1.41647e-011	-1.15612e-011	-9.21829e-012	-7.26106e-012	-5.56795e-012	-3.60856e-012	-2.10698e-012	-6.04729e-013	8.3187e-013	2.40126e-012	3.25216e-012	
FineR40	-1.57922e-010	-1.24298e-010	-1.01893e-010	-8.50533e-011	-7.11866e-011	-6.04603e-011	-5.11849e-011	-4.36382e-011	-3.71803e-011	-3.1172e-011	-2.66392e-011	-2.21705e-011	-1.84704e-011	-1.5028e-011	-1.22321e-011	-9.43667e-012	-6.63875e-012	-4.75019e-012	-2.59957e-012	-4.47512e-013	1.05346e-012	3.01144e-012	4.32011e-012	5.82326e-012	7.13037e-012	8.17816e-012	
FineR50	-1.5439e-010	-1.20413e-010	-9.81915e-011	-8.11627e-011	-6.74749e-011	-5.6749e-011	-4.76669e-011	-3.99334e-011	-3.34746e-011	-2.79168e-011	-2.29273e-011	-1.86534e-011	-1.50223e-011	-1.15798e-011	-8.32918e-012	-5.98794e-012	-3.38272e-012	-1.04004e-012	1.18023e-012	3.06937e-012	4.76629e-012	6.26814e-012	7.77069e-012	9.07974e-012	1.05816e-011	1.16294e-011	
FineR60	-1.51594e-010	-1.17704e-010	-9.56622e-011	-7.8284e-011	-6.51295e-011	-5.41382e-011	-4.5053e-011	-3.73154e-011	-3.08571e-011	-2.54916e-011	-2.03847e-011	-1.60379e-011	-1.2214e-011	-8.70212e-012	-5.90655e-012	-2.91703e-012	-3.11505e-013	1.57661e-012	3.53223e-012	5.42153e-012	7.38119e-012	8.88289e-012	1.05821e-011	1.18897e-011	1.31992e-011	1.42439e-011	
FineR70	-1.49832e-010	-1.15751e-010	-9.33604e-011	-7.66981e-011	-6.29067e-011	-5.21048e-011	-4.30958e-011	-3.5548e-011	-2.90895e-011	-2.32709e-011	-1.83517e-011	-1.42684e-011	-1.03749e-011	-6.93283e-012	-3.94412e-012	-1.14729e-012	1.26379e-012	3.54019e-012	5.30222e-012	7.45451e-012	9.41295e-012	1.09146e-011	1.2417e-011	1.37256e-011	1.47726e-011	1.62758e-011	
FineR80	-1.48126e-010	-1.14504e-010	-9.19221e-011	-7.48131e-011	-6.1658e-011	-5.0399e-011	-4.13899e-011	-3.3842e-011	-2.73833e-011	-2.15644e-011	-1.68389e-011	-1.27544e-011	-9.12357e-012	-5.22599e-012	-2.23729e-012	3.66319e-013	3.16566e-012	5.31549e-012	7.46678e-012	9.1608e-012	1.11205e-011	1.26222e-011	1.39301e-011	1.53682e-011	1.64792e-011	1.77889e-011	
FineR90	-1.46684e-010	-1.12875e-010	-9.06547e-011	-7.33599e-011	-6.02059e-011	-4.92146e-011	-4.03962e-011	-3.2392e-011	-2.62018e-011	-2.03799e-011	-1.56532e-011	-1.13783e-011	-7.74677e-012	-4.04142e-012	-1.0523e-012	1.5509e-012	4.08812e-012	6.50025e-012	8.65158e-012	1.03483e-011	1.20435e-011	1.37421e-011	1.5312e-011	1.66206e-011	1.78624e-011	1.91717e-011	
FineR100	-1.4558e-010	-1.11768e-010	-8.95461e-011	-7.27047e-011	-5.90942e-011	-4.78349e-011	-3.90163e-011	-3.14686e-011	-2.48214e-011	-1.94529e-011	-1.45368e-011	-1.01891e-011	-6.36559e-012	-2.92286e-012	-1.28001e-013	2.66938e-012	5.01192e-012	7.42458e-012	9.57573e-012	1.12716e-011	1.32291e-011	1.4733e-011	1.62354e-011	1.75435e-011	1.90471e-011	2.00947e-011	
FineR110	-1.44909e-010	-1.1083e-010	-8.85143e-011	-7.15822e-011	-5.81602e-011	-4.72515e-011	-3.81602e-011	-3.06124e-011	-2.38897e-011	-1.81426e-011	-1.3609e-011	-8.87733e-012	-5.24571e-012	-1.99636e-012	9.91692e-013	3.78949e-012	6.32639e-012	8.477e-012	1.04328e-011	1.2391e-011	1.40882e-011	1.58522e-011	1.70923e-011	1.84008e-011	1.94477e-011	2.09519e-011	
FineR120	-1.43594e-010	-1.09785e-010	-8.78342e-011	-7.07256e-011	-5.73802e-011	-4.63121e-011	-3.73032e-011	-2.97552e-011	-2.31077e-011	-1.77412e-011	-1.28228e-011	-8.28308e-012	-4.84383e-012	-1.40165e-012	1.84996e-012	4.64742e-012	6.9218e-012	9.13955e-012	1.14867e-011	1.29868e-011	1.475e-011	1.64483e-011	1.79507e-011	1.92591e-011	2.07628e-011	2.18104e-011	
FineR130	-1.43005e-010	-1.09367e-010	-8.72432e-011	-6.99451e-011	-5.6789e-011	-4.55288e-011	-3.67049e-011	-2.89698e-011	-2.25105e-011	-1.68804e-011	-1.24187e-011	-7.9509e-012	-3.98495e-012	-5.42887e-013	2.63917e-012	4.97965e-012	7.65365e-012	1.01925e-011	1.18874e-011	1.35815e-011	1.55411e-011	1.72397e-011	1.85477e-011	2.00509e-011	2.136e-011	2.24714e-011	
FineR140	-1.42398e-010	-1.08405e-010	-8.64531e-011	-6.95235e-011	-5.59212e-011	-4.49293e-011	-3.592e-011	-2.83716e-011	-2.19128e-011	-1.6283e-011	-1.16307e-011	-7.28331e-012	-3.38852e-012	-1.67794e-014	3.0417e-012	5.57627e-012	8.37528e-012	1.05253e-011	1.24826e-011	1.43729e-011	1.61362e-011	1.78347e-011	1.91425e-011	2.06456e-011	2.16926e-011	2.32641e-011	
FineR150	-1.41878e-010	-1.08069e-010	-8.58501e-011	-6.90093e-011	-5.53975e-011	-4.45953e-011	-3.53208e-011	-2.80379e-011	-2.15792e-011	-1.57573e-011	-1.08408e-011	-6.49319e-012	-2.86212e-012	5.79923e-013	3.83165e-012	6.17163e-012	8.97129e-012	1.11212e-011	1.32725e-011	1.4772e-011	1.67316e-011	1.84299e-011	1.99323e-011	2.09785e-011	2.24823e-011	2.35299e-011	
FineR160	-1.41356e-010	-1.07462e-010	-8.55134e-011	-6.82174e-011	-5.5063e-011	-4.38041e-011	-3.47952e-011	-2.72471e-011	-2.07885e-011	-1.54235e-011	-1.06979e-011	-6.15939e-012	-2.07177e-012	9.13417e-013	4.09551e-012	6.69881e-012	9.30477e-012	1.14546e-011	1.33431e-011	1.5496e-011	1.69968e-011	1.87608e-011	2.04603e-011	2.15066e-011	2.30777e-011	2.41252e-011	
FineR170	-1.41019e-010	-1.0694e-010	-8.49891e-011	-6.76925e-011	-5.45378e-011	-4.35452e-011	-3.46469e-011	-2.71778e-011	-2.05272e-011	-1.4897e-011	-1.01714e-011	-5.63259e-012	-2.00145e-012	1.4405e-012	4.49844e-012	7.03241e-012	9.83221e-012	1.19821e-011	1.41335e-011	1.56333e-011	1.77872e-011	1.9094e-011	2.05314e-011	2.18369e-011	2.33439e-011	2.44551e-011	
FineR180	-1.40662e-010	-1.06859e-010	-8.47345e-011	-6.7536e-011	-5.40124e-011	-4.3204e-011	-3.41209e-011	-2.63864e-011	-2.00007e-011	-1.43703e-011	-9.64451e-012	-5.10555e-012	-1.66704e-012	1.96778e-012	4.76272e-012	7.36531e-012	1.01647e-011	1.23143e-011	1.44653e-011	1.61612e-011	1.83151e-011	1.9622e-011	2.08621e-011	2.2365e-011	2.36742e-011	2.47215e-011	
FineR190	-1.40139e-010	-1.06334e-010	-8.41178e-011	-6.70907e-011	-5.36692e-011	-4.26781e-011	-3.35947e-011	-2.63129e-011	-1.9855e-011	-1.40336e-011	-9.11745e-012	-4.77038e-012	-1.13971e-012	2.03844e-012	5.29032e-012	7.63002e-012	1.04297e-011	1.25795e-011	1.47308e-011	1.64264e-011	1.86464e-011	1.99531e-011	2.16496e-011	2.26956e-011	2.40046e-011	2.53135e-011	
FineR200	-1.40053e-010	-1.06252e-010	-8.40379e-011	-6.70127e-011	-5.33259e-011	-4.23366e-011	-3.35203e-011	-2.57827e-011	-1.91363e-011	-1.35066e-011	-9.04565e-012	-4.69904e-012	-1.06878e-012	2.82936e-012	5.62362e-012	8.61452e-012	1.07621e-011	1.29115e-011	1.50625e-011	1.69525e-011	1.87152e-011	2.04134e-011	2.19833e-011	2.3224e-011	2.42707e-011	2.58421e-011	
FineR210	-1.39529e-010	-1.05728e-010	-8.35118e-011	-6.62188e-011	-5.30669e-011	-4.20765e-011	-3.32549e-011	-2.55212e-011	-1.90633e-011	-1.34342e-011	-8.44543e-012	-4.17157e-012	-3.48064e-013	2.90001e-012	5.62441e-012	8.68453e-012	1.08323e-011	1.34397e-011	1.53259e-011	1.72845e-011	1.92436e-011	2.07447e-011	2.19846e-011	2.34901e-011	2.46014e-011	2.61052e-011	
FineR220	-1.39094e-010	-1.0546e-010	-8.35141e-011	-6.61406e-011	-5.29901e-011	-4.2001e-011	-3.27283e-011	-2.54474e-011	-1.87253e-011	-1.33616e-011	-8.25376e-012	-4.10003e-012	-2.76955e-013	3.16422e-012	6.15242e-012	8.94928e-012	1.15539e-011	1.37034e-011	1.58543e-011	1.755e-011	1.93126e-011	2.08135e-011	2.22506e-011	2.35585e-011	2.50626e-011	2.63716e-011	
FineR230	-1.39008e-010	-1.04933e-010	-8.29878e-011	-6.58826e-011	-5.25414e-011	-4.15505e-011	-3.26535e-011	-2.49943e-011	-1.8463e-011	-1.29066e-011	-8.18169e-012	-3.64354e-012	-1.29658e-014	3.42837e-012	6.48595e-012	9.01944e-012	1.1819e-011	1.39687e-011	1.61198e-011	1.76193e-011	1.97729e-011	2.10795e-011	2.25167e-011	2.40874e-011	2.5329e-011	2.61781e-011	
FineR240	-1.38922e-010	-1.04852e-010	-8.25435e-011	-6.56156e-011	-5.24645e-011	-4.14747e-011	-3.24673e-011	-2.49204e-011	-1.84629e-011	-1.24515e-011	-7.65429e-012	-3.57186e-012	5.82973e-014	3.69275e-012	6.94421e-012	9.47813e-012	1.18889e-011	1.40384e-011	1.61893e-011	1.80794e-011	2.00388e-011	2.15402e-011	2.27802e-011	2.40882e-011	2.53974e-011	2.64447e-011	
FineR250	-1.38212e-010	-1.0441e-010	-8.24634e-011	-6.55372e-011	-5.17482e-011	-4.10241e-011	-3.23925e-011	-2.43932e-011	-1.81247e-011	-1.23788e-011	-7.65394e-012	-3.57144e-012	3.22261e-013	3.95706e-012	6.75121e-012	9.54843e-012	1.21529e-011	1.40391e-011	1.619e-011	1.83424e-011	1.98428e-011	2.18038e-011	2.3111e-011	2.43517e-011	2.56601e-011	2.67073e-011	
MinCout:	-1.29658e-014	FineR:	230	FineC:	120

	FineC120	FineC121	FineC122	FineC123	FineC124	FineC125	FineC126	FineC127	FineC128	FineC129	FineC130	FineC131	FineC132	FineC133	FineC134	FineC135	FineC136	FineC137	FineC138	FineC139	FineC140	
FineR150	-3.05471e-012	-2.66897e-012	-2.21233e-012	-2.01948e-012	-1.56282e-012	-9.13182e-013	-1.17661e-012	-5.26801e-013	-7.01154e-014	1.23145e-013	5.79816e-013	7.73277e-013	9.66596e-013	1.42349e-012	1.61686e-012	2.26725e-012	2.26725e-012	2.53051e-012	3.18101e-012	3.37449e-012	3.37448e-012	
FineR151	-2.86212e-012	-2.40546e-012	-2.01948e-012	-1.56306e-012	-1.36985e-012	-1.10635e-012	-7.20075e-013	-4.56614e-013	1.93261e-013	3.86521e-013	5.79923e-013	7.73231e-013	1.22991e-012	1.68678e-012	1.61686e-012	1.88015e-012	2.53051e-012	2.53051e-012	3.18101e-012	3.18101e-012	3.56847e-012	
FineR152	-2.86212e-012	-2.59852e-012	-2.21266e-012	-1.75599e-012	-1.563e-012	-9.13326e-013	-6.4984e-013	-4.56614e-013	-7.01627e-014	1.93261e-013	8.43275e-013	1.03658e-012	1.49343e-012	1.42346e-012	1.88015e-012	2.33711e-012	2.53052e-012	2.98757e-012	3.18103e-012	3.18101e-012	3.83165e-012	
FineR153	-2.79162e-012	-2.14224e-012	-2.21266e-012	-1.56306e-012	-1.29954e-012	-1.10639e-012	-4.56638e-013	-7.20075e-013	-7.01627e-014	1.93261e-013	8.43275e-013	1.03658e-012	1.49343e-012	1.68678e-012	1.88015e-012	2.07382e-012	2.53052e-012	2.98757e-012	3.18103e-012	3.63818e-012	3.83169e-012	
FineR154	-2.79162e-012	-2.40582e-012	-2.14224e-012	-1.49271e-012	-1.29957e-012	-9.13326e-013	-9.13326e-013	-4.56638e-013	1.93249e-013	3.86593e-013	8.43277e-013	1.03674e-012	1.49343e-012	1.49343e-012	2.14372e-012	2.33712e-012	2.60037e-012	2.72433e-012	3.18103e-012	3.37497e-012	3.63818e-012	
FineR155	-2.52808e-012	-2.40582e-012	-1.94914e-012	-1.75626e-012	-1.29957e-012	-1.10652e-012	-3.86404e-013	-4.56638e-013	1.93249e-013	1.93249e-013	8.43277e-013	1.10663e-012	1.23008e-012	1.68678e-012	2.14372e-012	2.33712e-012	2.60037e-012	2.98761e-012	3.25082e-012	3.37497e-012	3.63818e-012	
FineR156	-2.79166e-012	-2.14227e-012	-1.87871e-012	-1.75626e-012	-1.29957e-012	-6.49854e-013	-6.49854e-013	0	0	3.8657e-013	8.43277e-013	1.3001e-012	1.49344e-012	1.75676e-012	2.14375e-012	2.33712e-012	2.79416e-012	2.79416e-012	3.25082e-012	3.63823e-012	3.9014e-012	
FineR157	-2.59896e-012	-2.14227e-012	-1.87871e-012	-1.75626e-012	-1.22921e-012	-1.10655e-012	-6.49854e-013	0	4.56661e-013	6.49994e-013	8.43277e-013	8.43277e-013	1.49344e-012	1.75676e-012	2.14375e-012	2.33712e-012	2.33712e-012	2.98761e-012	3.25082e-012	3.44428e-012	3.9014e-012	
FineR158	-2.79166e-012	-2.14227e-012	-1.87871e-012	-1.49273e-012	-1.03607e-012	-8.43046e-013	-3.86381e-013	0	2.63412e-013	4.56661e-013	9.13368e-013	1.10666e-012	1.49344e-012	1.75676e-012	2.14375e-012	2.40702e-012	2.7942e-012	2.98761e-012	3.25088e-012	3.44473e-012	3.9014e-012	
FineR159	-2.52808e-012	-2.14227e-012	-1.61519e-012	-1.49273e-012	-1.03607e-012	-8.43046e-013	-3.86381e-013	-3.86404e-013	2.63412e-013	6.49994e-013	1.10666e-012	1.36998e-012	1.56329e-012	1.75676e-012	1.95011e-012	2.40702e-012	2.60043e-012	3.05743e-012	3.51406e-012	3.70798e-012	4.16461e-012	
FineR160	-2.52808e-012	-2.07179e-012	-1.87871e-012	-1.49273e-012	-1.22921e-012	-8.43046e-013	-3.86381e-013	0	2.63448e-013	7.20132e-013	1.17675e-012	1.30013e-012	1.56346e-012	1.75681e-012	2.2137e-012	2.40709e-012	3.05751e-012	3.05743e-012	3.25088e-012	3.70798e-012	3.90148e-012	
FineR161	-2.26485e-012	-2.07177e-012	-1.42229e-012	-1.22919e-012	-1.03622e-012	-5.79538e-013	-3.16099e-013	-1.93227e-013	2.63448e-013	7.20132e-013	6.49994e-013	1.10666e-012	1.82683e-012	2.21377e-012	2.40709e-012	2.40709e-012	3.05751e-012	3.05751e-012	3.70807e-012	3.97123e-012	3.90148e-012	
FineR162	-2.26485e-012	-2.07177e-012	-1.42229e-012	-1.22919e-012	-1.03622e-012	-5.79538e-013	-3.16099e-013	7.02573e-014	7.20192e-013	7.20132e-013	9.13417e-013	1.56353e-012	1.82683e-012	2.21377e-012	2.2137e-012	2.40709e-012	2.86407e-012	3.05751e-012	3.70807e-012	3.97123e-012	4.16473e-012	
FineR163	-2.26482e-012	-2.07177e-012	-1.42229e-012	-1.15879e-012	-7.72671e-013	-5.79538e-013	-3.8643e-013	7.02573e-014	7.20192e-013	7.20192e-013	1.37027e-012	1.37019e-012	1.56353e-012	2.02017e-012	2.47704e-012	2.67043e-012	3.12739e-012	3.32082e-012	3.51459e-012	3.97123e-012	4.16524e-012	
FineR164	-2.26482e-012	-1.80818e-012	-1.42229e-012	-1.42229e-012	-7.72671e-013	-3.16029e-013	-3.16099e-013	7.02573e-014	7.20192e-013	7.20192e-013	1.37027e-012	1.63359e-012	1.56353e-012	2.21377e-012	2.21377e-012	2.86416e-012	3.12739e-012	3.32082e-012	3.77788e-012	3.70807e-012	3.97123e-012	
FineR165	-2.26482e-012	-1.80818e-012	-1.42229e-012	-1.42229e-012	-7.72671e-013	-5.09208e-013	-1.22911e-013	3.33741e-013	7.20192e-013	7.20192e-013	1.17684e-012	1.63359e-012	1.82692e-012	2.28377e-012	2.21377e-012	2.67043e-012	2.86416e-012	3.32082e-012	3.77788e-012	3.97136e-012	4.23449e-012	
FineR166	-2.26482e-012	-1.80818e-012	-1.61537e-012	-9.65783e-013	-7.02295e-013	-2.457e-013	-1.22911e-013	3.33741e-013	7.90378e-013	9.83652e-013	1.17684e-012	1.37027e-012	1.82692e-012	2.09019e-012	2.47715e-012	2.67043e-012	3.12739e-012	3.32082e-012	3.58399e-012	3.97136e-012	4.23449e-012	
FineR167	-2.26482e-012	-1.80818e-012	-1.15872e-012	-1.15872e-012	-5.09127e-013	-7.72671e-013	-3.16029e-013	3.33741e-013	7.90378e-013	9.83652e-013	1.44026e-012	1.37027e-012	1.82692e-012	2.02048e-012	2.47715e-012	3.12751e-012	3.12739e-012	3.32082e-012	3.77788e-012	3.97136e-012	4.23449e-012	
FineR168	-2.26482e-012	-1.80818e-012	-1.35159e-012	-1.15872e-012	-7.02126e-013	-3.16029e-013	-3.16029e-013	3.33741e-013	7.90378e-013	9.83652e-013	1.44026e-012	1.6337e-012	1.82692e-012	2.28377e-012	2.47715e-012	2.74037e-012	3.12751e-012	3.3907e-012	3.77802e-012	3.97136e-012	4.23449e-012	
FineR169	-2.00119e-012	-1.35176e-012	-1.61537e-012	-1.15872e-012	-7.02295e-013	-5.09127e-013	1.40609e-013	3.33825e-013	7.90378e-013	9.83652e-013	1.44038e-012	1.6337e-012	2.09032e-012	2.28389e-012	2.47715e-012	2.93377e-012	3.3907e-012	3.3907e-012	3.77802e-012	4.04116e-012	4.42866e-012	
FineR170	-2.00119e-012	-2.00119e-012	-1.35176e-012	-7.02202e-013	-7.02202e-013	-3.16056e-013	1.40609e-013	1.40609e-013	7.90486e-013	1.24711e-012	1.4405e-012	1.89714e-012	2.09052e-012	2.28389e-012	2.74052e-012	2.93422e-012	3.39086e-012	3.3907e-012	3.77802e-012	4.04116e-012	4.42866e-012	
MinCout:	0	FineR:	156	FineC:	127

