	CoarseC0	CoarseC10	CoarseC20	CoarseC30	CoarseC40	CoarseC50	CoarseC60	CoarseC70	CoarseC80	CoarseC90	CoarseC100	CoarseC110	CoarseC120	CoarseC130	CoarseC140	CoarseC150	CoarseC160	CoarseC170	CoarseC180	CoarseC190	CoarseC200	CoarseC210	CoarseC220	CoarseC230	CoarseC240	CoarseC250	
CoarseR0	-1.81552e-009	-1.80273e-009	-1.78471e-009	-1.76285e-009	-1.7371e-009	-1.70824e-009	-1.6767e-009	-1.64179e-009	-1.60487e-009	-1.56481e-009	-1.52071e-009	-1.46802e-009	-1.41621e-009	-1.36742e-009	-1.32234e-009	-1.27979e-009	-1.24026e-009	-1.20274e-009	-1.16776e-009	-1.13549e-009	-1.10501e-009	-1.07653e-009	-1.04968e-009	-1.02522e-009	-1.00156e-009	-9.79721e-010	
CoarseR10	-1.38668e-009	-1.36935e-009	-1.34866e-009	-1.32454e-009	-1.2974e-009	-1.26804e-009	-1.23619e-009	-1.20122e-009	-1.16369e-009	-1.12198e-009	-1.07088e-009	-1.02056e-009	-9.73851e-010	-9.30621e-010	-8.90019e-010	-8.51503e-010	-8.15653e-010	-7.82683e-010	-7.51789e-010	-7.22922e-010	-6.95949e-010	-6.70355e-010	-6.46626e-010	-6.24676e-010	-6.03941e-010	-5.84112e-010	
CoarseR20	-1.12969e-009	-1.11015e-009	-1.08839e-009	-1.06314e-009	-1.03557e-009	-1.00496e-009	-9.72228e-010	-9.35957e-010	-8.96487e-010	-8.47385e-010	-7.97734e-010	-7.51396e-010	-7.08408e-010	-6.6802e-010	-6.30238e-010	-5.95121e-010	-5.62898e-010	-5.32428e-010	-5.04346e-010	-4.77972e-010	-4.53347e-010	-4.30166e-010	-4.08573e-010	-3.88267e-010	-3.69364e-010	-3.51368e-010	
CoarseR30	-9.58102e-010	-9.367e-010	-9.13425e-010	-8.87273e-010	-8.58482e-010	-8.26618e-010	-7.92985e-010	-7.54918e-010	-7.08454e-010	-6.58021e-010	-6.11407e-010	-5.68314e-010	-5.27197e-010	-4.89108e-010	-4.54192e-010	-4.21594e-010	-3.91398e-010	-3.63837e-010	-3.36939e-010	-3.12746e-010	-2.89878e-010	-2.68151e-010	-2.481e-010	-2.29366e-010	-2.11703e-010	-1.95083e-010	
CoarseR40	-8.34922e-010	-8.12242e-010	-7.87696e-010	-7.60279e-010	-7.30008e-010	-6.96785e-010	-6.61197e-010	-6.19482e-010	-5.67719e-010	-5.20097e-010	-4.75889e-010	-4.33567e-010	-3.94737e-010	-3.59123e-010	-3.25704e-010	-2.95482e-010	-2.67043e-010	-2.40922e-010	-2.1589e-010	-1.93192e-010	-1.71419e-010	-1.51335e-010	-1.32553e-010	-1.14893e-010	-9.81624e-011	-8.27805e-011	
CoarseR50	-7.42382e-010	-7.18384e-010	-6.92317e-010	-6.6395e-010	-6.32343e-010	-5.9772e-010	-5.59821e-010	-5.10396e-010	-4.60869e-010	-4.14705e-010	-3.70883e-010	-3.30863e-010	-2.93782e-010	-2.59779e-010	-2.28381e-010	-1.99603e-010	-1.72443e-010	-1.47519e-010	-1.23686e-010	-1.01964e-010	-8.18058e-011	-6.26943e-011	-4.48484e-011	-2.82611e-011	-1.25199e-011	2.36769e-012	
CoarseR60	-6.70059e-010	-6.44018e-010	-6.17083e-010	-5.87058e-010	-5.54287e-010	-5.17791e-010	-4.75049e-010	-4.22805e-010	-3.74791e-010	-3.29311e-010	-2.87123e-010	-2.48235e-010	-2.1304e-010	-1.80509e-010	-1.50914e-010	-1.22465e-010	-9.69111e-011	-7.28704e-011	-5.05678e-011	-3.00361e-011	-1.0051e-011	7.98724e-012	2.51462e-011	4.05731e-011	5.54481e-011	6.92823e-011	
CoarseR70	-6.10825e-010	-5.83882e-010	-5.55552e-010	-5.24271e-010	-4.89808e-010	-4.5119e-010	-4.01834e-010	-3.50966e-010	-3.03808e-010	-2.58841e-010	-2.18299e-010	-1.81035e-010	-1.4707e-010	-1.15587e-010	-8.68552e-011	-5.9712e-011	-3.52577e-011	-1.25093e-011	9.32549e-012	2.90795e-011	4.81586e-011	6.55396e-011	8.18285e-011	9.68786e-011	1.10892e-010	1.24248e-010	
CoarseR80	-5.62613e-010	-5.33788e-010	-5.04166e-010	-4.71566e-010	-4.35519e-010	-3.93832e-010	-3.40698e-010	-2.90422e-010	-2.43392e-010	-2.00106e-010	-1.60769e-010	-1.24702e-010	-9.18352e-011	-6.12645e-011	-3.35454e-011	-7.52998e-012	1.6357e-011	3.84666e-011	5.92923e-011	7.86052e-011	9.63867e-011	1.13574e-010	1.29041e-010	1.43218e-010	1.57003e-010	1.69524e-010	
CoarseR90	-5.21038e-010	-4.91281e-010	-4.60818e-010	-4.26822e-010	-3.88635e-010	-3.40467e-010	-2.88063e-010	-2.38678e-010	-1.92264e-010	-1.49711e-010	-1.11455e-010	-7.6533e-011	-4.46512e-011	-1.51394e-011	1.21587e-011	3.71792e-011	6.04966e-011	8.17393e-011	1.02386e-010	1.20868e-010	1.38028e-010	1.54368e-010	1.69171e-010	1.82933e-010	1.96078e-010	2.07932e-010	
CoarseR100	-4.86289e-010	-4.54936e-010	-4.22765e-010	-3.87596e-010	-3.47901e-010	-2.94686e-010	-2.43041e-010	-1.93342e-010	-1.48021e-010	-1.06904e-010	-6.9347e-011	-3.48471e-011	-3.83184e-012	2.48896e-011	5.11273e-011	7.56005e-011	9.82412e-011	1.19179e-010	1.38738e-010	1.56571e-010	1.7359e-010	1.89032e-010	2.03677e-010	2.16986e-010	2.29462e-010	2.40592e-010	
CoarseR110	-4.54977e-010	-4.22419e-010	-3.89285e-010	-3.52624e-010	-3.09459e-010	-2.53604e-010	-2.01931e-010	-1.5257e-010	-1.08398e-010	-6.77652e-011	-3.16153e-011	1.93467e-012	3.24431e-011	6.05567e-011	8.64567e-011	1.10311e-010	1.32134e-010	1.5264e-010	1.71617e-010	1.88788e-010	2.05368e-010	2.20421e-010	2.3414e-010	2.47267e-010	2.58789e-010	2.69711e-010	
CoarseR120	-4.27494e-010	-3.93738e-010	-3.59209e-010	-3.21095e-010	-2.72863e-010	-2.17754e-010	-1.65611e-010	-1.16862e-010	-7.373e-011	-3.40328e-011	1.98078e-012	3.42989e-011	6.43965e-011	9.17052e-011	1.17264e-010	1.40503e-010	1.61936e-010	1.8158e-010	2.00598e-010	2.17842e-010	2.3307e-010	2.47698e-010	2.6141e-010	2.73398e-010	2.84654e-010	2.95382e-010	
CoarseR130	-4.02949e-010	-3.67886e-010	-3.32662e-010	-2.92788e-010	-2.40646e-010	-1.84946e-010	-1.32923e-010	-8.54873e-011	-4.25486e-011	-3.62555e-012	3.14349e-011	6.36214e-011	9.27264e-011	1.19895e-010	1.4482e-010	1.67909e-010	1.88965e-010	2.08231e-010	2.26622e-010	2.42991e-010	2.57976e-010	2.72364e-010	2.85153e-010	2.97138e-010	3.0768e-010	3.17905e-010	
CoarseR140	-3.80763e-010	-3.44901e-010	-3.08391e-010	-2.66835e-010	-2.10739e-010	-1.5514e-010	-1.03394e-010	-5.67248e-011	-1.41572e-011	2.36183e-011	5.8274e-011	9.0137e-011	1.18605e-010	1.45424e-010	1.69519e-010	1.92415e-010	2.1309e-010	2.31947e-010	2.49867e-010	2.65779e-010	2.80627e-010	2.94537e-010	3.07101e-010	3.1855e-010	3.28854e-010	3.37807e-010	
CoarseR150	-3.60904e-010	-3.23382e-010	-2.85664e-010	-2.42028e-010	-1.83601e-010	-1.27409e-010	-7.6432e-011	-3.01447e-011	1.13804e-011	4.92897e-011	8.31693e-011	1.14129e-010	1.42746e-010	1.68998e-010	1.92633e-010	2.15188e-010	2.35206e-010	2.53842e-010	2.70819e-010	2.86755e-010	3.01354e-010	3.14534e-010	3.26869e-010	3.37574e-010	3.4788e-010	3.56538e-010	
CoarseR160	-3.41841e-010	-3.03767e-010	-2.64999e-010	-2.16772e-010	-1.58365e-010	-1.01998e-010	-5.17483e-011	-6.03763e-012	3.49789e-011	7.20225e-011	1.06335e-010	1.36625e-010	1.64425e-010	1.90512e-010	2.14018e-010	2.35836e-010	2.55401e-010	2.73614e-010	2.90934e-010	3.0638e-010	3.19986e-010	3.32943e-010	3.44998e-010	3.55408e-010	3.64692e-010	3.73012e-010	
CoarseR170	-3.25093e-010	-2.85839e-010	-2.45657e-010	-1.94307e-010	-1.35333e-010	-7.90107e-011	-2.88521e-011	1.6186e-011	5.64812e-011	9.33759e-011	1.26369e-010	1.57123e-010	1.84703e-010	2.10411e-010	2.33517e-010	2.54922e-010	2.74319e-010	2.92237e-010	3.08824e-010	3.23824e-010	3.37444e-010	3.50082e-010	3.61369e-010	3.71515e-010	3.80484e-010	3.88221e-010	
CoarseR180	-3.09296e-010	-2.69261e-010	-2.28127e-010	-1.72325e-010	-1.13759e-010	-5.73956e-011	-8.31866e-012	3.62915e-011	7.63848e-011	1.12666e-010	1.46083e-010	1.7583e-010	2.03131e-010	2.2834e-010	2.51035e-010	2.72495e-010	2.91675e-010	3.09177e-010	3.25552e-010	3.3999e-010	3.5354e-010	3.6571e-010	3.76684e-010	3.86051e-010	3.94689e-010	4.02156e-010	
CoarseR190	-2.94609e-010	-2.53672e-010	-2.10728e-010	-1.5284e-010	-9.33167e-011	-3.72556e-011	1.11832e-011	5.53263e-011	9.52588e-011	1.31267e-010	1.63978e-010	1.93929e-010	2.20718e-010	2.45303e-010	2.6827e-010	2.89335e-010	3.07977e-010	3.25239e-010	3.4132e-010	3.55526e-010	3.68604e-010	3.80197e-010	3.90871e-010	4.00102e-010	4.07652e-010	4.14768e-010	
CoarseR200	-2.80672e-010	-2.38986e-010	-1.94627e-010	-1.3422e-010	-7.44235e-011	-1.94479e-011	2.92839e-011	7.325e-011	1.12553e-010	1.48111e-010	1.80716e-010	2.10059e-010	2.3665e-010	2.61285e-010	2.83817e-010	3.04659e-010	3.23092e-010	3.40145e-010	3.55976e-010	3.69616e-010	3.82588e-010	3.93913e-010	4.04333e-010	4.12697e-010	4.20141e-010	4.2637e-010	
CoarseR210	-2.67769e-010	-2.25067e-010	-1.79472e-010	-1.16912e-010	-5.64792e-011	-1.84167e-012	4.61776e-011	8.9969e-011	1.28704e-010	1.64222e-010	1.96149e-010	2.25833e-010	2.51665e-010	2.76411e-010	2.98207e-010	3.19036e-010	3.37261e-010	3.54311e-010	3.69318e-010	3.83265e-010	3.95417e-010	4.0662e-010	4.16429e-010	4.24743e-010	4.31291e-010	4.37428e-010	
CoarseR220	-2.56253e-010	-2.12457e-010	-1.63783e-010	-1.01027e-010	-4.04144e-011	1.39651e-011	6.18853e-011	1.04862e-010	1.43834e-010	1.78933e-010	2.10657e-010	2.39863e-010	2.6607e-010	2.903e-010	3.1219e-010	3.32586e-010	3.50214e-010	3.66776e-010	3.82252e-010	3.95597e-010	4.08046e-010	4.18403e-010	4.27843e-010	4.35814e-010	4.42496e-010	4.47715e-010	
CoarseR230	-2.44785e-010	-1.99935e-010	-1.48554e-010	-8.5364e-011	-2.48189e-011	2.92141e-011	7.66477e-011	1.19446e-010	1.57941e-010	1.92912e-010	2.24553e-010	2.53598e-010	2.79834e-010	3.03605e-010	3.25024e-010	3.45313e-010	3.6301e-010	3.79491e-010	3.93962e-010	4.07538e-010	4.19344e-010	4.29653e-010	4.38712e-010	4.46064e-010	4.52147e-010	4.56632e-010	
CoarseR240	-2.33776e-010	-1.88066e-010	-1.34215e-010	-7.07711e-011	-1.02037e-011	4.31368e-011	9.05635e-011	1.32943e-010	1.71311e-010	2.06623e-010	2.37838e-010	2.66708e-010	2.92484e-010	3.16001e-010	3.37909e-010	3.57481e-010	3.74927e-010	3.91125e-010	4.05792e-010	4.18489e-010	4.30277e-010	4.40195e-010	4.48905e-010	4.55883e-010	4.61525e-010	4.65087e-010	
CoarseR250	-2.23765e-010	-1.77572e-010	-1.2117e-010	-5.65316e-011	3.08582e-012	5.64324e-011	1.0331e-010	1.45452e-010	1.84162e-010	2.18289e-010	2.49744e-010	2.77946e-010	3.04298e-010	3.27599e-010	3.49022e-010	3.68572e-010	3.85997e-010	4.02137e-010	4.16556e-010	4.29437e-010	4.40318e-010	4.50179e-010	4.5799e-010	4.64523e-010	4.70111e-010	4.7327e-010	
MinCout:	-1.84167e-012	CoarseR:	210	CoarseC:	50

	CoarseC120	CoarseC121	CoarseC122	CoarseC123	CoarseC124	CoarseC125	CoarseC126	CoarseC127	CoarseC128	CoarseC129	CoarseC130	CoarseC131	CoarseC132	CoarseC133	CoarseC134	CoarseC135	CoarseC136	CoarseC137	CoarseC138	CoarseC139	CoarseC140	
CoarseR80	-9.18352e-011	-8.89984e-011	-8.55235e-011	-8.27711e-011	-7.90249e-011	-7.67099e-011	-7.33133e-011	-7.0286e-011	-6.70587e-011	-6.42272e-011	-6.14517e-011	-5.82321e-011	-5.53865e-011	-5.28734e-011	-5.01035e-011	-4.71325e-011	-4.47373e-011	-4.16971e-011	-3.87329e-011	-3.61356e-011	-3.36107e-011	
CoarseR81	-8.68523e-011	-8.37458e-011	-8.05389e-011	-7.77741e-011	-7.42954e-011	-7.15383e-011	-6.85116e-011	-6.52965e-011	-6.20688e-011	-5.92248e-011	-5.66365e-011	-5.34947e-011	-5.04597e-011	-4.78787e-011	-4.48414e-011	-4.20582e-011	-3.94743e-011	-3.69537e-011	-3.3914e-011	-3.13901e-011	-2.85442e-011	
CoarseR82	-8.16413e-011	-7.86202e-011	-7.55844e-011	-7.28292e-011	-6.95361e-011	-6.67776e-011	-6.32949e-011	-6.05219e-011	-5.7037e-011	-5.446e-011	-5.16838e-011	-4.87277e-011	-4.58804e-011	-4.28434e-011	-4.03271e-011	-3.70984e-011	-3.47692e-011	-3.21832e-011	-2.89478e-011	-2.63597e-011	-2.38332e-011	
CoarseR83	-7.71145e-011	-7.36368e-011	-7.06132e-011	-6.77725e-011	-6.45501e-011	-6.19756e-011	-5.87594e-011	-5.59875e-011	-5.25011e-011	-4.97348e-011	-4.68885e-011	-4.39222e-011	-4.11512e-011	-3.81127e-011	-3.55287e-011	-3.27448e-011	-2.99676e-011	-2.7191e-011	-2.44025e-011	-2.16207e-011	-1.92864e-011	
CoarseR84	-7.20989e-011	-6.90759e-011	-6.58557e-011	-6.32821e-011	-5.96145e-011	-5.69593e-011	-5.42675e-011	-5.0977e-011	-4.77479e-011	-4.51679e-011	-4.23909e-011	-3.91651e-011	-3.63163e-011	-3.35351e-011	-3.09502e-011	-2.77854e-011	-2.56525e-011	-2.26076e-011	-1.96358e-011	-1.73023e-011	-1.4447e-011	
CoarseR85	-6.75019e-011	-6.45511e-011	-6.08855e-011	-5.84986e-011	-5.48265e-011	-5.2698e-011	-4.94785e-011	-4.64459e-011	-4.2769e-011	-4.01876e-011	-3.74098e-011	-3.43715e-011	-3.15975e-011	-2.88152e-011	-2.62286e-011	-2.34435e-011	-2.08551e-011	-1.80735e-011	-1.50935e-011	-1.25018e-011	-9.90628e-012	
CoarseR86	-6.2767e-011	-5.95535e-011	-5.6332e-011	-5.36835e-011	-5.02736e-011	-4.76954e-011	-4.46609e-011	-4.18878e-011	-3.802e-011	-3.56269e-011	-3.25889e-011	-3.00744e-011	-2.70338e-011	-2.41825e-011	-2.16634e-011	-1.88833e-011	-1.61014e-011	-1.35106e-011	-1.07206e-011	-7.93411e-012	-5.59845e-012	
CoarseR87	-5.82619e-011	-5.52312e-011	-5.15624e-011	-4.91743e-011	-4.57604e-011	-4.31837e-011	-4.01477e-011	-3.7108e-011	-3.38821e-011	-3.11097e-011	-2.85204e-011	-2.52898e-011	-2.25127e-011	-1.99204e-011	-1.71403e-011	-1.40956e-011	-1.17631e-011	-8.97836e-012	-6.18988e-012	-3.59355e-012	-8.07223e-013	
CoarseR88	-5.35409e-011	-5.02457e-011	-4.74018e-011	-4.4638e-011	-4.14124e-011	-3.88321e-011	-3.57975e-011	-3.25714e-011	-2.93397e-011	-2.67561e-011	-2.37149e-011	-2.11991e-011	-1.81558e-011	-1.53758e-011	-1.30465e-011	-9.99941e-012	-7.47492e-012	-4.61821e-012	-1.63883e-012	5.04654e-013	3.29538e-012	
CoarseR89	-4.91625e-011	-4.59442e-011	-4.29137e-011	-4.02578e-011	-3.66583e-011	-3.45295e-011	-3.10374e-011	-2.78094e-011	-2.50312e-011	-2.24465e-011	-1.94041e-011	-1.66231e-011	-1.3843e-011	-1.09889e-011	-8.46985e-012	-5.22711e-012	-3.08913e-012	-2.98888e-013	2.22785e-012	5.01886e-012	7.87899e-012	
CoarseR90	-4.44591e-011	-4.18807e-011	-3.83926e-011	-3.60023e-011	-3.23247e-011	-3.00056e-011	-2.69682e-011	-2.37385e-011	-2.05051e-011	-1.79179e-011	-1.51394e-011	-1.25482e-011	-9.76664e-012	-6.71939e-012	-4.12699e-012	-1.14705e-012	1.44746e-012	3.97532e-012	6.76658e-012	9.62707e-012	1.19645e-011	
CoarseR91	-4.05572e-011	-3.75259e-011	-3.40366e-011	-3.17198e-011	-2.80416e-011	-2.54564e-011	-2.24178e-011	-1.93778e-011	-1.62171e-011	-1.38201e-011	-1.09666e-011	-7.99274e-012	-5.59351e-012	-2.61714e-012	1.69758e-013	2.95767e-012	5.29109e-012	8.15056e-012	1.09427e-011	1.34747e-011	1.62705e-011	
CoarseR92	-3.60682e-011	-3.32213e-011	-2.99964e-011	-2.72263e-011	-2.37322e-011	-2.16032e-011	-1.81067e-011	-1.533e-011	-1.22852e-011	-9.50533e-012	-6.72365e-012	-3.93958e-012	-1.15466e-012	1.70275e-012	4.29783e-012	7.0862e-012	9.87704e-012	1.2212e-011	1.5006e-011	1.76061e-011	2.01406e-011	
CoarseR93	-3.14738e-011	-2.86261e-011	-2.56658e-011	-2.28941e-011	-1.93985e-011	-1.70777e-011	-1.40361e-011	-1.09931e-011	-7.75476e-012	-5.4304e-012	-2.57458e-012	4.01736e-013	2.99574e-012	5.78358e-012	8.4495e-012	1.11695e-011	1.37676e-011	1.62979e-011	1.93559e-011	2.1694e-011	2.44929e-011	
CoarseR94	-2.76501e-011	-2.46101e-011	-2.18402e-011	-1.89898e-011	-1.57586e-011	-1.27177e-011	-1.02058e-011	-7.15931e-012	-3.73226e-012	-1.06716e-012	1.26029e-012	4.50286e-012	7.2908e-012	9.88522e-012	1.24824e-011	1.50101e-011	1.76095e-011	2.0405e-011	2.32001e-011	2.58027e-011	2.80776e-011	
CoarseR95	-2.38043e-011	-2.07629e-011	-1.77273e-011	-1.46856e-011	-1.14547e-011	-8.86613e-012	-5.82244e-012	-3.30562e-012	1.97788e-013	2.78912e-012	5.57374e-012	8.36136e-012	1.06919e-011	1.37456e-011	1.6344e-011	1.90666e-011	2.14732e-011	2.42672e-011	2.72606e-011	2.96699e-011	3.22073e-011	
CoarseR96	-1.94806e-011	-1.6633e-011	-1.34013e-011	-1.08137e-011	-7.84667e-012	-4.99238e-012	-1.94743e-012	1.02835e-012	4.26653e-012	6.66753e-012	9.45518e-012	1.22419e-011	1.50329e-011	1.78942e-011	2.04221e-011	2.34124e-011	2.58201e-011	2.81575e-011	3.12194e-011	3.35631e-011	3.61014e-011	
CoarseR97	-1.55879e-011	-1.28178e-011	-9.31945e-012	-6.99521e-012	-3.49406e-012	-9.062e-013	1.68179e-012	4.92322e-012	7.89868e-012	1.04945e-011	1.3547e-011	1.60717e-011	1.86707e-011	2.14602e-011	2.42561e-011	2.68585e-011	2.99193e-011	3.19957e-011	3.50593e-011	3.76658e-011	3.99441e-011	
CoarseR98	-1.14866e-011	-8.98069e-012	-5.48055e-012	-3.08361e-012	1.54736e-013	2.74195e-012	5.71974e-012	8.57792e-012	1.18173e-011	1.43434e-011	1.72044e-011	1.97288e-011	2.25915e-011	2.55819e-011	2.77218e-011	3.09776e-011	3.33206e-011	3.61171e-011	3.87238e-011	4.12623e-011	4.38713e-011	
CoarseR99	-7.89882e-012	-4.85184e-012	-1.81438e-012	5.12511e-013	4.0165e-012	6.80048e-012	9.65871e-012	1.26341e-011	1.58808e-011	1.80154e-011	2.10718e-011	2.38656e-011	2.63927e-011	2.92574e-011	3.18607e-011	3.43928e-011	3.67307e-011	3.95342e-011	4.25356e-011	4.46814e-011	4.72916e-011	
CoarseR100	-4.02009e-012	-9.76891e-013	1.80148e-012	4.58358e-012	8.08943e-012	1.04899e-011	1.32013e-011	1.63248e-011	1.95728e-011	2.19022e-011	2.49583e-011	2.75596e-011	3.00873e-011	3.31483e-011	3.52223e-011	3.84815e-011	4.06238e-011	4.34287e-011	4.62268e-011	4.85778e-011	5.09212e-011	
MinCout:	1.54736e-013	CoarseR:	98	CoarseC:	124

	FineC0	FineC10	FineC20	FineC30	FineC40	FineC50	FineC60	FineC70	FineC80	FineC90	FineC100	FineC110	FineC120	FineC130	FineC140	FineC150	FineC160	FineC170	FineC180	FineC190	FineC200	FineC210	FineC220	FineC230	FineC240	FineC250	
FineR0	-2.18282e-010	-1.82808e-010	-1.59603e-010	-1.41928e-010	-1.27669e-010	-1.16267e-010	-1.06593e-010	-9.843e-011	-9.18151e-011	-8.5574e-011	-8.04053e-011	-7.5887e-011	-7.20856e-011	-6.8214e-011	-6.478e-011	-6.20007e-011	-5.93958e-011	-5.70672e-011	-5.49275e-011	-5.27864e-011	-5.08331e-011	-4.93366e-011	-4.76468e-011	-4.66036e-011	-4.48528e-011	-4.35431e-011	
FineR10	-1.85869e-010	-1.50715e-010	-1.28199e-010	-1.10519e-010	-9.65029e-011	-8.51001e-011	-7.58532e-011	-6.76838e-011	-6.10598e-011	-5.49947e-011	-5.00994e-011	-4.53094e-011	-4.15007e-011	-3.80678e-011	-3.50874e-011	-3.20376e-011	-2.95074e-011	-2.7173e-011	-2.50293e-011	-2.26275e-011	-2.11305e-011	-1.91748e-011	-1.76762e-011	-1.64408e-011	-1.49375e-011	-1.38922e-011	
FineR20	-1.71492e-010	-1.36878e-010	-1.14089e-010	-9.66628e-011	-8.28198e-011	-7.14118e-011	-6.21617e-011	-5.39956e-011	-4.72887e-011	-4.15595e-011	-3.62041e-011	-3.23226e-011	-2.80559e-011	-2.46217e-011	-2.164e-011	-1.83964e-011	-1.59907e-011	-1.38477e-011	-1.15093e-011	-9.5573e-012	-7.60227e-012	-5.90931e-012	-4.4104e-012	-3.17386e-012	-1.86621e-012	-5.62688e-013	
FineR30	-1.63229e-010	-1.28889e-010	-1.06363e-010	-8.88462e-011	-7.49119e-011	-6.36706e-011	-5.44287e-011	-4.64455e-011	-3.95512e-011	-3.37468e-011	-2.86515e-011	-2.43885e-011	-2.05021e-011	-1.66155e-011	-1.36338e-011	-1.1105e-011	-8.24323e-012	-5.90551e-012	-3.75986e-012	-1.80543e-012	-3.08012e-013	1.38555e-012	2.88465e-012	4.38444e-012	5.88494e-012	6.99632e-012	
FineR40	-1.57953e-010	-1.235e-010	-1.01244e-010	-8.37243e-011	-6.96996e-011	-5.84695e-011	-4.90367e-011	-4.13152e-011	-3.46851e-011	-2.86133e-011	-2.38977e-011	-1.96346e-011	-1.53656e-011	-1.19308e-011	-8.87991e-012	-6.15919e-012	-3.36688e-012	-1.41251e-012	9.26185e-013	2.8784e-012	4.57361e-012	6.3325e-012	8.02769e-012	9.13795e-012	1.08328e-011	1.18782e-011	
FineR50	-1.54493e-010	-1.20327e-010	-9.75175e-011	-8.00069e-011	-6.64297e-011	-5.48276e-011	-4.55741e-011	-3.77791e-011	-3.09587e-011	-2.56054e-011	-2.04361e-011	-1.57173e-011	-1.20222e-011	-8.65997e-012	-5.41658e-012	-2.62473e-012	1.67788e-013	2.05112e-012	4.19734e-012	6.60612e-012	7.84256e-012	9.53673e-012	1.1036e-011	1.26031e-011	1.38413e-011	1.51487e-011	
FineR60	-1.51687e-010	-1.17417e-010	-9.48942e-011	-7.73741e-011	-6.36174e-011	-5.21972e-011	-4.34008e-011	-3.52297e-011	-2.85212e-011	-2.29779e-011	-1.78102e-011	-1.35462e-011	-9.46795e-012	-6.03351e-012	-3.05316e-012	-2.61215e-013	2.53188e-012	5.13281e-012	7.08426e-012	8.97128e-012	1.07314e-011	1.24257e-011	1.39249e-011	1.51626e-011	1.64683e-011	1.77757e-011	
FineR70	-1.49663e-010	-1.15206e-010	-9.31218e-011	-7.56008e-011	-6.18435e-011	-5.06118e-011	-4.11698e-011	-3.31885e-011	-2.65547e-011	-2.06736e-011	-1.58422e-011	-1.15053e-011	-7.69085e-012	-4.06395e-012	-1.01209e-012	1.97238e-012	4.57159e-012	6.91106e-012	8.86448e-012	1.07499e-011	1.251e-011	1.43981e-011	1.57037e-011	1.69415e-011	1.82483e-011	1.98169e-011	
FineR80	-1.48221e-010	-1.13679e-010	-9.141e-011	-7.38889e-011	-6.01315e-011	-4.88997e-011	-3.99136e-011	-3.17417e-011	-2.5033e-011	-1.93002e-011	-1.43211e-011	-1.00565e-011	-5.71491e-012	-2.54332e-012	7.01084e-013	3.4921e-012	6.02327e-012	8.36177e-012	1.07714e-011	1.2268e-011	1.42237e-011	1.59183e-011	1.74175e-011	1.86554e-011	2.02237e-011	2.12689e-011	
FineR90	-1.46573e-010	-1.12485e-010	-8.97744e-011	-7.25184e-011	-5.86738e-011	-4.77084e-011	-3.84575e-011	-3.05507e-011	-2.41073e-011	-1.80348e-011	-1.28668e-011	-8.67394e-012	-4.52415e-012	-1.08987e-012	1.89164e-012	4.87562e-012	7.28196e-012	9.55238e-012	1.16993e-011	1.36542e-011	1.51518e-011	1.73025e-011	1.8608e-011	2.01077e-011	2.14142e-011	2.26536e-011	
FineR100	-1.45626e-010	-1.1119e-010	-8.88352e-011	-7.15827e-011	-5.75567e-011	-4.63249e-011	-3.71489e-011	-2.91666e-011	-2.2723e-011	-1.69149e-011	-1.201e-011	-7.28896e-012	-3.59425e-012	3.1859e-014	2.82052e-012	5.61145e-012	8.59815e-012	1.07433e-011	1.26966e-011	1.48445e-011	1.6538e-011	1.82985e-011	1.95354e-011	2.12322e-011	2.23415e-011	2.35807e-011	
FineR110	-1.44786e-010	-1.10331e-010	-8.77082e-011	-7.07238e-011	-5.64312e-011	-4.54657e-011	-3.64795e-011	-2.83071e-011	-2.18634e-011	-1.60551e-011	-1.08863e-011	-6.35743e-012	-2.54244e-012	6.99453e-013	3.94373e-012	6.73464e-012	9.26526e-012	1.14103e-011	1.38195e-011	1.54426e-011	1.73984e-011	1.91591e-011	2.06581e-011	2.21578e-011	2.33995e-011	2.45092e-011	
FineR120	-1.43652e-010	-1.09469e-010	-8.69413e-011	-6.98627e-011	-5.58376e-011	-4.46055e-011	-3.56192e-011	-2.74466e-011	-2.10028e-011	-1.51941e-011	-1.00253e-011	-5.56815e-012	-1.68135e-012	1.29712e-012	4.73512e-012	7.33276e-012	1.01264e-011	1.2465e-011	1.44182e-011	1.65664e-011	1.80637e-011	1.96898e-011	2.12574e-011	2.27572e-011	2.40638e-011	2.53705e-011	
FineR130	-1.43043e-010	-1.08607e-010	-8.65233e-011	-6.88131e-011	-5.5424e-011	-4.4004e-011	-3.50184e-011	-2.7037e-011	-2.02148e-011	-1.44055e-011	-9.69051e-012	-5.16162e-012	-1.3466e-012	2.15867e-012	5.33303e-012	8.12463e-012	1.07242e-011	1.33269e-011	1.52109e-011	1.69011e-011	1.88569e-011	2.03551e-011	2.2051e-011	2.33572e-011	2.48578e-011	2.5903e-011	
FineR140	-1.42268e-010	-1.0827e-010	-8.59181e-011	-6.8397e-011	-5.46397e-011	-4.34851e-011	-3.42317e-011	-2.62457e-011	-1.96146e-011	-1.38057e-011	-9.09109e-012	-4.56253e-012	-4.12889e-013	2.95012e-012	5.93141e-012	8.98573e-012	1.12537e-011	1.36618e-011	1.58086e-011	1.74987e-011	1.94543e-011	2.09524e-011	2.26482e-011	2.4148e-011	2.54549e-011	2.64999e-011	
FineR150	-1.4193e-010	-1.07477e-010	-8.53944e-011	-6.78725e-011	-5.41146e-011	-4.28822e-011	-3.363e-011	-2.57227e-011	-1.90112e-011	-1.32055e-011	-8.29957e-012	-4.03487e-012	-1.48772e-013	3.54882e-012	6.52982e-012	9.32108e-012	1.16571e-011	1.3997e-011	1.63374e-011	1.80961e-011	1.97894e-011	2.17462e-011	2.29832e-011	2.47455e-011	2.57899e-011	2.70966e-011	
FineR160	-1.41134e-010	-1.07138e-010	-8.46006e-011	-6.75355e-011	-5.35104e-011	-4.23562e-011	-3.31033e-011	-2.53865e-011	-1.84867e-011	-1.29425e-011	-7.96366e-012	-3.43526e-012	1.86992e-013	4.07726e-012	6.86549e-012	9.84983e-012	1.24492e-011	1.45934e-011	1.69353e-011	1.86253e-011	2.05809e-011	2.20789e-011	2.37746e-011	2.5081e-011	2.65813e-011	2.76263e-011	
FineR170	-1.40884e-010	-1.06514e-010	-8.42619e-011	-6.70097e-011	-5.31661e-011	-4.22028e-011	-3.24961e-011	-2.50464e-011	-1.80739e-011	-1.23418e-011	-7.3634e-012	-2.90693e-012	7.15024e-013	4.34224e-012	7.39378e-012	1.03783e-011	1.29777e-011	1.51227e-011	1.70061e-011	1.89604e-011	2.08476e-011	2.26078e-011	2.41103e-011	2.56101e-011	2.66544e-011	2.82236e-011	
FineR180	-1.40525e-010	-1.06261e-010	-8.37374e-011	-6.64836e-011	-5.29067e-011	-4.1676e-011	-3.2425e-011	-2.45191e-011	-1.80762e-011	-1.20785e-011	-7.09947e-012	-2.37878e-012	1.50724e-012	4.48504e-012	7.46573e-012	1.07128e-011	1.32431e-011	1.53883e-011	1.76045e-011	1.94893e-011	2.11804e-011	2.29438e-011	2.44426e-011	2.59421e-011	2.69862e-011	2.8488e-011	
FineR190	-1.4e-010	-1.06006e-010	-8.36561e-011	-6.61363e-011	-5.23801e-011	-4.11491e-011	-3.18978e-011	-2.39916e-011	-1.75484e-011	-1.17401e-011	-6.83584e-012	-2.3062e-012	1.31596e-012	5.2063e-012	8.18729e-012	1.09788e-011	1.31214e-011	1.59173e-011	1.76749e-011	1.98225e-011	2.17096e-011	2.32076e-011	2.45122e-011	2.64715e-011	2.75157e-011	2.85606e-011	
FineR200	-1.39913e-010	-1.05652e-010	-8.33058e-011	-6.60568e-011	-5.20349e-011	-4.08057e-011	-3.18219e-011	-2.3651e-011	-1.69443e-011	-1.16663e-011	-6.30624e-012	-1.77776e-012	1.65232e-012	5.27818e-012	8.52321e-012	1.13128e-011	1.37184e-011	1.62513e-011	1.82041e-011	2.03518e-011	2.20426e-011	2.3543e-011	2.50417e-011	2.6541e-011	2.75851e-011	2.93485e-011	
FineR210	-1.39661e-010	-1.05397e-010	-8.30487e-011	-6.53424e-011	-5.1768e-011	-4.05392e-011	-3.12899e-011	-2.35759e-011	-1.66787e-011	-1.11381e-011	-5.70445e-012	-1.70499e-012	1.9881e-012	5.80705e-012	8.78778e-012	1.18419e-011	1.44408e-011	1.63221e-011	1.86639e-011	2.04222e-011	2.23091e-011	2.40037e-011	2.55713e-011	2.70707e-011	2.81116e-011	2.96156e-011	
FineR220	-1.39301e-010	-1.05042e-010	-8.27805e-011	-6.50838e-011	-5.15081e-011	-4.02784e-011	-3.1028e-011	-2.31228e-011	-1.66805e-011	-1.08732e-011	-5.89567e-012	-1.63212e-012	2.4452e-012	6.14224e-012	8.85951e-012	1.19133e-011	1.47067e-011	1.65881e-011	1.87345e-011	2.08823e-011	2.23793e-011	2.40737e-011	2.58354e-011	2.73347e-011	2.83788e-011	2.9685e-011	
FineR230	-1.38591e-010	-1.04601e-010	-8.22535e-011	-6.5004e-011	-5.14298e-011	-4.02012e-011	-3.10324e-011	-2.28604e-011	-1.64174e-011	-1.06091e-011	-5.89565e-012	-1.17551e-012	2.97416e-012	6.33696e-012	9.12488e-012	1.23721e-011	1.47779e-011	1.73111e-011	1.89988e-011	2.09528e-011	2.2646e-011	2.43379e-011	2.58394e-011	2.76018e-011	2.8646e-011	3.01468e-011	
FineR240	-1.38613e-010	-1.04517e-010	-8.2266e-011	-6.49241e-011	-5.09025e-011	-3.97507e-011	-3.05002e-011	-2.25943e-011	-1.61516e-011	-1.00791e-011	-5.43966e-012	-8.38041e-013	2.78254e-012	6.40918e-012	9.84627e-012	1.24437e-011	1.49736e-011	1.71187e-011	1.92652e-011	2.14132e-011	2.31067e-011	2.46047e-011	2.61035e-011	2.76717e-011	2.87157e-011	3.02164e-011	
FineR250	-1.38067e-010	-1.04261e-010	-8.17277e-011	-6.47455e-011	-5.06352e-011	-3.97563e-011	-3.02383e-011	-2.22536e-011	-1.5621e-011	-1.00804e-011	-5.10212e-012	-6.45709e-013	3.23995e-012	6.67326e-012	9.65524e-012	1.24447e-011	1.52383e-011	1.73833e-011	1.95297e-011	2.14838e-011	2.36331e-011	2.49369e-011	2.61736e-011	2.76729e-011	2.89786e-011	3.0286e-011	
MinCout:	3.1859e-014	FineR:	100	FineC:	130

	FineC120	FineC121	FineC122	FineC123	FineC124	FineC125	FineC126	FineC127	FineC128	FineC129	FineC130	FineC131	FineC132	FineC133	FineC134	FineC135	FineC136	FineC137	FineC138	FineC139	FineC140	
FineR110	-2.73433e-012	-2.54229e-012	-2.08638e-012	-1.63053e-012	-1.2459e-012	-7.90058e-013	-8.60972e-013	-4.05013e-013	5.09064e-014	6.99453e-013	6.99453e-013	1.34814e-012	1.61143e-012	1.73375e-012	2.18968e-012	2.18968e-012	2.83868e-012	2.83868e-012	3.03146e-012	3.68063e-012	3.94376e-012	
FineR111	-2.54244e-012	-2.27885e-012	-1.82298e-012	-1.70182e-012	-1.24598e-012	-7.90058e-013	-7.90058e-013	-1.41685e-013	3.14199e-013	4.36057e-013	6.99453e-013	1.08478e-012	1.34814e-012	1.99697e-012	2.18961e-012	2.45287e-012	2.83868e-012	3.10187e-012	3.48783e-012	3.48783e-012	3.94373e-012	
FineR112	-2.47129e-012	-2.27897e-012	-1.89435e-012	-1.63079e-012	-9.82592e-013	-7.90165e-013	-3.34254e-013	-1.41685e-013	3.14199e-013	5.06828e-013	1.15548e-012	1.15548e-012	1.61138e-012	2.26019e-012	2.26019e-012	2.90913e-012	2.64593e-012	3.29504e-012	3.29504e-012	3.75096e-012	4.40021e-012	
FineR113	-2.47129e-012	-2.20782e-012	-1.82327e-012	-1.36738e-012	-9.82592e-013	-9.82592e-013	-3.34254e-013	-1.4178e-013	5.06746e-013	7.70132e-013	1.15541e-012	1.15548e-012	1.34806e-012	2.06753e-012	2.45321e-012	2.45321e-012	2.90913e-012	3.36548e-012	3.29504e-012	3.75096e-012	3.94429e-012	
FineR114	-2.20782e-012	-2.0155e-012	-1.55982e-012	-1.43865e-012	-9.82688e-013	-7.19204e-013	-3.34337e-013	1.21584e-013	5.77564e-013	7.70229e-013	9.62844e-013	1.41876e-012	1.68204e-012	2.06753e-012	2.52341e-012	2.45321e-012	2.90913e-012	3.295e-012	3.55821e-012	4.01465e-012	4.20743e-012	
FineR115	-2.4002e-012	-2.01572e-012	-1.29637e-012	-1.17519e-012	-9.1168e-013	-2.634e-013	-7.0937e-014	-7.08898e-014	5.77564e-013	7.70229e-013	1.22616e-012	1.68204e-012	1.87489e-012	2.06753e-012	2.33077e-012	2.71644e-012	2.97964e-012	3.36548e-012	4.01467e-012	4.01467e-012	4.20743e-012	
FineR116	-2.13669e-012	-2.01581e-012	-1.29637e-012	-1.10413e-012	-6.48255e-013	-4.55887e-013	-7.09126e-014	1.21586e-013	3.8502e-013	1.03358e-012	1.48947e-012	1.68228e-012	1.87489e-012	2.52377e-012	2.52377e-012	2.71643e-012	3.17278e-012	3.62869e-012	3.82194e-012	4.01467e-012	4.47058e-012	
FineR117	-2.13669e-012	-1.48875e-012	-1.75224e-012	-1.10413e-012	-6.48255e-013	-4.55887e-013	0	3.84997e-013	5.7753e-013	1.03358e-012	1.22614e-012	1.68228e-012	1.87489e-012	2.33112e-012	2.78703e-012	2.78703e-012	3.17278e-012	3.43597e-012	3.82194e-012	4.27785e-012	4.27785e-012	
FineR118	-1.94467e-012	-1.94463e-012	-1.29656e-012	-1.10417e-012	-6.48351e-013	-1.92451e-013	0	1.92499e-013	6.48396e-013	1.29693e-012	1.29693e-012	1.94561e-012	1.94561e-012	2.33112e-012	2.78703e-012	2.9801e-012	3.43602e-012	3.17278e-012	4.08515e-012	4.27785e-012	4.27785e-012	
FineR119	-1.94467e-012	-1.68111e-012	-1.03307e-012	-8.40674e-013	-6.48351e-013	-1.92451e-013	-1.92451e-013	4.5591e-013	8.41025e-013	1.29693e-012	1.48969e-012	1.68228e-012	1.94561e-012	2.59442e-012	3.0503e-012	2.78703e-012	3.43602e-012	3.43602e-012	4.08515e-012	4.34827e-012	4.73442e-012	
FineR120	-1.87345e-012	-1.94467e-012	-1.29659e-012	-1.03307e-012	-3.8488e-013	7.09843e-014	2.63447e-013	1.92487e-013	1.10441e-012	1.10441e-012	1.75305e-012	1.75305e-012	2.40183e-012	2.59442e-012	2.85772e-012	3.24338e-012	3.24338e-012	3.69927e-012	4.08522e-012	4.34837e-012	4.80481e-012	
FineR121	-1.87345e-012	-1.48898e-012	-1.22544e-012	-5.77285e-013	-1.21408e-013	-3.8488e-013	2.63447e-013	4.55934e-013	1.3678e-012	1.3678e-012	1.48971e-012	1.75305e-012	2.40183e-012	2.66507e-012	2.85772e-012	3.31396e-012	3.50666e-012	3.89247e-012	3.89247e-012	4.34837e-012	4.99761e-012	
FineR122	-1.60989e-012	-1.22542e-012	-1.22544e-012	-7.69571e-013	-3.84857e-013	-1.21408e-013	2.63447e-013	2.63447e-013	9.11914e-013	1.3678e-012	1.56052e-012	2.20927e-012	2.47253e-012	2.66517e-012	3.31407e-012	3.05076e-012	3.69982e-012	3.96298e-012	4.15573e-012	4.34902e-012	4.80494e-012	
FineR123	-1.87344e-012	-1.60989e-012	-1.22542e-012	-5.77251e-013	-3.13778e-013	7.10072e-014	2.63483e-013	7.1944e-013	1.17534e-012	1.36801e-012	1.82392e-012	2.20927e-012	2.20927e-012	2.66517e-012	3.05083e-012	3.31407e-012	3.69982e-012	3.69982e-012	4.15573e-012	4.61214e-012	4.99836e-012	
FineR124	-1.80217e-012	-1.15422e-012	-9.61849e-013	-7.69668e-013	-3.13778e-013	7.10545e-014	5.26989e-013	9.82899e-013	1.17534e-012	1.36801e-012	1.82392e-012	2.47264e-012	2.47264e-012	2.85825e-012	3.12151e-012	3.50718e-012	3.50718e-012	3.96311e-012	4.61228e-012	4.61228e-012	5.2616e-012	
FineR125	-1.80217e-012	-1.15422e-012	-9.61849e-013	-5.06125e-013	-3.13778e-013	7.10545e-014	5.26989e-013	9.82899e-013	1.36809e-012	1.63145e-012	1.82392e-012	2.01673e-012	2.66558e-012	2.92883e-012	3.12151e-012	3.77051e-012	3.77051e-012	4.2264e-012	4.4195e-012	4.61228e-012	5.06817e-012	
FineR126	-1.34651e-012	-1.34651e-012	-6.98449e-013	-5.06125e-013	-5.02707e-014	1.42109e-013	5.27061e-013	7.90483e-013	1.63145e-012	1.63145e-012	1.82402e-012	2.28014e-012	2.73602e-012	3.19218e-012	3.38486e-012	3.3847e-012	3.77051e-012	4.2264e-012	4.41965e-012	4.87555e-012	4.80566e-012	
FineR127	-1.61007e-012	-1.34651e-012	-6.98449e-013	-2.42582e-013	-3.13708e-013	1.42109e-013	5.97973e-013	7.90483e-013	1.439e-012	1.63156e-012	2.08765e-012	2.28014e-012	2.47275e-012	2.92897e-012	3.38486e-012	3.57793e-012	4.03383e-012	4.22704e-012	4.68295e-012	4.68277e-012	5.06893e-012	
FineR128	-1.53877e-012	-8.9075e-013	-6.98355e-013	-3.13734e-013	-5.02493e-014	4.05628e-013	7.90591e-013	1.05398e-012	1.70247e-012	1.63156e-012	2.08765e-012	2.54355e-012	2.73645e-012	3.19235e-012	3.19235e-012	3.8413e-012	3.77065e-012	4.22704e-012	4.68295e-012	4.94603e-012	5.13881e-012	
FineR129	-1.53877e-012	-8.9075e-013	-6.98355e-013	-2.42585e-013	2.13305e-013	4.05721e-013	5.98091e-013	1.12496e-012	1.43912e-012	1.70247e-012	2.3511e-012	2.3511e-012	2.73645e-012	2.99969e-012	3.38538e-012	3.8413e-012	3.8413e-012	4.49038e-012	4.68295e-012	4.87629e-012	5.33221e-012	
FineR130	-1.27513e-012	-8.90645e-013	-6.27135e-013	-2.42585e-013	2.08525e-014	4.05721e-013	8.61621e-013	1.05417e-012	1.70275e-012	2.15867e-012	2.15867e-012	2.80741e-012	2.99987e-012	2.99987e-012	3.64878e-012	3.91194e-012	4.03446e-012	4.49038e-012	4.68367e-012	5.1396e-012	5.1396e-012	
MinCout:	0	FineR:	117	FineC:	126

