	CoarseC0	CoarseC10	CoarseC20	CoarseC30	CoarseC40	CoarseC50	CoarseC60	CoarseC70	CoarseC80	CoarseC90	CoarseC100	CoarseC110	CoarseC120	CoarseC130	CoarseC140	CoarseC150	CoarseC160	CoarseC170	CoarseC180	CoarseC190	CoarseC200	CoarseC210	CoarseC220	CoarseC230	CoarseC240	CoarseC250	
CoarseR0	-1.80077e-009	-1.78841e-009	-1.77132e-009	-1.74929e-009	-1.72366e-009	-1.69482e-009	-1.66307e-009	-1.62839e-009	-1.59163e-009	-1.55146e-009	-1.50755e-009	-1.45405e-009	-1.40205e-009	-1.35393e-009	-1.30893e-009	-1.26595e-009	-1.22634e-009	-1.1895e-009	-1.15426e-009	-1.12174e-009	-1.09086e-009	-1.06233e-009	-1.03528e-009	-1.01009e-009	-9.8601e-010	-9.64144e-010	
CoarseR10	-1.38249e-009	-1.36533e-009	-1.34523e-009	-1.32164e-009	-1.2953e-009	-1.26577e-009	-1.23339e-009	-1.19862e-009	-1.16147e-009	-1.11984e-009	-1.06858e-009	-1.01797e-009	-9.71539e-010	-9.29054e-010	-8.88366e-010	-8.50003e-010	-8.13894e-010	-7.80699e-010	-7.49386e-010	-7.20232e-010	-6.93014e-010	-6.67561e-010	-6.436e-010	-6.2127e-010	-5.99669e-010	-5.80153e-010	
CoarseR20	-1.12852e-009	-1.10907e-009	-1.08767e-009	-1.06304e-009	-1.0354e-009	-1.00523e-009	-9.72273e-010	-9.36233e-010	-8.97504e-010	-8.47378e-010	-7.98061e-010	-7.52114e-010	-7.09263e-010	-6.70109e-010	-6.32055e-010	-5.96342e-010	-5.63385e-010	-5.33381e-010	-5.04714e-010	-4.78024e-010	-4.53479e-010	-4.30119e-010	-4.07942e-010	-3.87317e-010	-3.68071e-010	-3.50057e-010	
CoarseR30	-9.57225e-010	-9.36594e-010	-9.13369e-010	-8.87945e-010	-8.59096e-010	-8.2763e-010	-7.93702e-010	-7.56026e-010	-7.09976e-010	-6.59482e-010	-6.13229e-010	-5.70201e-010	-5.30098e-010	-4.92059e-010	-4.5688e-010	-4.2316e-010	-3.93017e-010	-3.64842e-010	-3.38564e-010	-3.13684e-010	-2.906e-010	-2.69221e-010	-2.48583e-010	-2.29383e-010	-2.11712e-010	-1.94882e-010	
CoarseR40	-8.34572e-010	-8.12541e-010	-7.8826e-010	-7.61469e-010	-7.31575e-010	-6.99144e-010	-6.62996e-010	-6.20976e-010	-5.6988e-010	-5.22524e-010	-4.78296e-010	-4.37152e-010	-3.9808e-010	-3.62273e-010	-3.29222e-010	-2.97665e-010	-2.69254e-010	-2.42801e-010	-2.17998e-010	-1.94878e-010	-1.73083e-010	-1.52791e-010	-1.34e-010	-1.1564e-010	-9.87331e-011	-8.30772e-011	
CoarseR50	-7.42906e-010	-7.19079e-010	-6.93598e-010	-6.65558e-010	-6.3423e-010	-6.00017e-010	-5.61587e-010	-5.11796e-010	-4.62769e-010	-4.17118e-010	-3.74914e-010	-3.34491e-010	-2.97152e-010	-2.63357e-010	-2.31387e-010	-2.02017e-010	-1.7504e-010	-1.49872e-010	-1.26014e-010	-1.04095e-010	-8.32198e-011	-6.43711e-011	-4.60999e-011	-2.95544e-011	-1.33745e-011	1.31918e-012	
CoarseR60	-6.70444e-010	-6.44944e-010	-6.18523e-010	-5.88796e-010	-5.56193e-010	-5.20395e-010	-4.76715e-010	-4.24644e-010	-3.7735e-010	-3.33192e-010	-2.91178e-010	-2.5248e-010	-2.16648e-010	-1.84502e-010	-1.53972e-010	-1.25951e-010	-9.98985e-011	-7.5635e-011	-5.29097e-011	-3.18798e-011	-1.24074e-011	5.84758e-012	2.32201e-011	3.93409e-011	5.46176e-011	6.8438e-011	
CoarseR70	-6.1173e-010	-5.85109e-010	-5.5683e-010	-5.26041e-010	-4.9187e-010	-4.5391e-010	-4.04015e-010	-3.53284e-010	-3.06954e-010	-2.6296e-010	-2.22249e-010	-1.85051e-010	-1.50664e-010	-1.19396e-010	-9.0246e-011	-6.28261e-011	-3.81441e-011	-1.47826e-011	6.90613e-012	2.70178e-011	4.59378e-011	6.34888e-011	7.98033e-011	9.52927e-011	1.09911e-010	1.23056e-010	
CoarseR80	-5.63735e-010	-5.35088e-010	-5.05795e-010	-4.73615e-010	-4.37887e-010	-3.96555e-010	-3.42822e-010	-2.934e-010	-2.48289e-010	-2.04367e-010	-1.65218e-010	-1.28718e-010	-9.53383e-011	-6.54274e-011	-3.70202e-011	-1.07647e-011	1.35395e-011	3.54324e-011	5.66742e-011	7.59619e-011	9.44385e-011	1.10932e-010	1.26815e-010	1.4142e-010	1.55664e-010	1.67933e-010	
CoarseR90	-5.21399e-010	-4.92297e-010	-4.62173e-010	-4.28541e-010	-3.91277e-010	-3.43092e-010	-2.90501e-010	-2.41751e-010	-1.96599e-010	-1.53435e-010	-1.15107e-010	-8.03873e-011	-4.80682e-011	-1.86989e-011	8.57227e-012	3.44758e-011	5.75726e-011	7.93038e-011	9.99197e-011	1.18412e-010	1.35995e-010	1.52103e-010	1.67329e-010	1.81265e-010	1.94635e-010	2.06948e-010	
CoarseR100	-4.85368e-010	-4.55196e-010	-4.24424e-010	-3.8934e-010	-3.49754e-010	-2.96801e-010	-2.44981e-010	-1.96761e-010	-1.51624e-010	-1.10131e-010	-7.2406e-011	-3.85673e-011	-7.0419e-012	2.17237e-011	4.86543e-011	7.34971e-011	9.59716e-011	1.17079e-010	1.36863e-010	1.55191e-010	1.72179e-010	1.87625e-010	2.01979e-010	2.15768e-010	2.28451e-010	2.398e-010	
CoarseR110	-4.55174e-010	-4.23196e-010	-3.90665e-010	-3.54656e-010	-3.1131e-010	-2.55765e-010	-2.04833e-010	-1.56236e-010	-1.12042e-010	-7.17258e-011	-3.50425e-011	-1.52716e-012	2.94066e-011	5.73802e-011	8.31675e-011	1.07447e-010	1.29764e-010	1.50046e-010	1.69461e-010	1.8687e-010	2.03459e-010	2.18708e-010	2.32431e-010	2.45527e-010	2.57533e-010	2.6868e-010	
CoarseR120	-4.27722e-010	-3.94255e-010	-3.60281e-010	-3.23119e-010	-2.74405e-010	-2.19581e-010	-1.68981e-010	-1.20559e-010	-7.69745e-011	-3.73208e-011	-1.60239e-012	3.15997e-011	6.14634e-011	8.88207e-011	1.1454e-010	1.38207e-010	1.59629e-010	1.79518e-010	1.988e-010	2.15805e-010	2.31732e-010	2.46035e-010	2.59539e-010	2.72412e-010	2.83967e-010	2.94368e-010	
CoarseR130	-4.03057e-010	-3.68539e-010	-3.33703e-010	-2.94568e-010	-2.41438e-010	-1.87605e-010	-1.36253e-010	-8.85489e-011	-4.56484e-011	-6.85891e-012	2.84521e-011	6.07934e-011	9.01188e-011	1.16868e-010	1.41951e-010	1.6551e-010	1.86554e-010	2.06272e-010	2.24624e-010	2.41208e-010	2.5665e-010	2.70804e-010	2.83822e-010	2.95991e-010	3.07276e-010	3.17226e-010	
CoarseR140	-3.81092e-010	-3.45409e-010	-3.09581e-010	-2.6819e-010	-2.12096e-010	-1.57933e-010	-1.06481e-010	-5.92268e-011	-1.73676e-011	2.13151e-011	5.55447e-011	8.73612e-011	1.16837e-010	1.42943e-010	1.67202e-010	1.9039e-010	2.11013e-010	2.30057e-010	2.48e-010	2.64373e-010	2.79365e-010	2.93024e-010	3.05837e-010	3.17536e-010	3.27808e-010	3.37236e-010	
CoarseR150	-3.61299e-010	-3.24184e-010	-2.87277e-010	-2.43512e-010	-1.85049e-010	-1.31691e-010	-7.96846e-011	-3.31653e-011	8.42585e-012	4.60163e-011	8.0156e-011	1.11626e-010	1.40197e-010	1.66197e-010	1.90554e-010	2.13106e-010	2.33338e-010	2.51709e-010	2.69458e-010	2.85374e-010	2.99918e-010	3.13354e-010	3.2541e-010	3.3655e-010	3.46827e-010	3.55715e-010	
CoarseR160	-3.42468e-010	-3.04871e-010	-2.66293e-010	-2.18692e-010	-1.60303e-010	-1.06293e-010	-5.4975e-011	-9.09436e-012	3.14281e-011	6.88757e-011	1.02953e-010	1.33815e-010	1.61819e-010	1.87181e-010	2.11411e-010	2.33482e-010	2.53779e-010	2.71722e-010	2.89228e-010	3.04444e-010	3.18723e-010	3.31941e-010	3.43493e-010	3.54386e-010	3.64115e-010	3.72698e-010	
CoarseR170	-3.257e-010	-2.86816e-010	-2.47374e-010	-1.95418e-010	-1.37436e-010	-8.28214e-011	-3.2479e-011	1.32033e-011	5.33771e-011	9.05423e-011	1.23804e-010	1.54256e-010	1.82095e-010	2.07376e-010	2.31116e-010	2.52822e-010	2.72353e-010	2.90339e-010	3.07182e-010	3.22376e-010	3.36181e-010	3.4886e-010	3.60113e-010	3.70498e-010	3.79915e-010	3.87694e-010	
CoarseR180	-3.09728e-010	-2.70442e-010	-2.29463e-010	-1.74174e-010	-1.16519e-010	-6.13797e-011	-1.12221e-011	3.3423e-011	7.35251e-011	1.10148e-010	1.43318e-010	1.7333e-010	2.00996e-010	2.26047e-010	2.49048e-010	2.70454e-010	2.89812e-010	3.07581e-010	3.23914e-010	3.38634e-010	3.52448e-010	3.64578e-010	3.75566e-010	3.8533e-010	3.9447e-010	4.01653e-010	
CoarseR190	-2.95196e-010	-2.54475e-010	-2.12374e-010	-1.54143e-010	-9.66367e-011	-4.15378e-011	8.11261e-012	5.2481e-011	9.224e-011	1.28504e-010	1.61098e-010	1.90858e-010	2.18177e-010	2.42812e-010	2.65722e-010	2.8727e-010	3.05958e-010	3.23437e-010	3.39755e-010	3.54262e-010	3.67525e-010	3.7939e-010	3.898e-010	3.99535e-010	4.07541e-010	4.14937e-010	
CoarseR200	-2.81759e-010	-2.40319e-010	-1.96709e-010	-1.36245e-010	-7.78347e-011	-2.28995e-011	2.64516e-011	7.03643e-011	1.0941e-010	1.45329e-010	1.77661e-010	2.07691e-010	2.34604e-010	2.59033e-010	2.81511e-010	3.02552e-010	3.2123e-010	3.38271e-010	3.54359e-010	3.68517e-010	3.81545e-010	3.92828e-010	4.03208e-010	4.1234e-010	4.19987e-010	4.26503e-010	
CoarseR210	-2.68616e-010	-2.2665e-010	-1.81118e-010	-1.19057e-010	-6.0504e-011	-6.03756e-012	4.2975e-011	8.68795e-011	1.25344e-010	1.61257e-010	1.93211e-010	2.22622e-010	2.49537e-010	2.73792e-010	2.96302e-010	3.16631e-010	3.35352e-010	3.52127e-010	3.67652e-010	3.81557e-010	3.94219e-010	4.05504e-010	4.15277e-010	4.24108e-010	4.31437e-010	4.37258e-010	
CoarseR220	-2.56839e-010	-2.13631e-010	-1.65101e-010	-1.02903e-010	-4.37205e-011	1.03073e-011	5.84529e-011	1.01999e-010	1.40636e-010	1.75947e-010	2.07891e-010	2.36948e-010	2.63642e-010	2.87714e-010	3.09767e-010	3.30103e-010	3.48832e-010	3.65347e-010	3.8052e-010	3.9418e-010	4.06566e-010	4.17234e-010	4.26935e-010	4.35392e-010	4.41757e-010	4.47272e-010	
CoarseR230	-2.4544e-010	-2.01442e-010	-1.49775e-010	-8.82267e-011	-2.8666e-011	2.52604e-011	7.31167e-011	1.16286e-010	1.54715e-010	1.89973e-010	2.21554e-010	2.50596e-010	2.7711e-010	3.00679e-010	3.22525e-010	3.43097e-010	3.61338e-010	3.77512e-010	3.92528e-010	4.06041e-010	4.18157e-010	4.28758e-010	4.37851e-010	4.45692e-010	4.51983e-010	4.56773e-010	
CoarseR240	-2.35162e-010	-1.8988e-010	-1.36047e-010	-7.37846e-011	-1.42755e-011	3.93713e-011	8.72165e-011	1.30172e-010	1.67995e-010	2.03319e-010	2.35019e-010	2.6362e-010	2.89598e-010	3.13179e-010	3.35113e-010	3.54883e-010	3.73088e-010	3.89003e-010	4.04221e-010	4.17213e-010	4.28933e-010	4.39153e-010	4.47958e-010	4.5511e-010	4.60758e-010	4.65132e-010	
CoarseR250	-2.24858e-010	-1.78581e-010	-1.224e-010	-6.06205e-011	-8.57817e-013	5.22149e-011	1.00036e-010	1.42752e-010	1.80634e-010	2.15511e-010	2.46984e-010	2.75389e-010	3.01461e-010	3.24827e-010	3.46409e-010	3.66478e-010	3.84093e-010	4.00081e-010	4.14664e-010	4.27615e-010	4.38949e-010	4.48855e-010	4.57493e-010	4.64337e-010	4.69303e-010	4.72745e-010	
MinCout:	-8.57817e-013	CoarseR:	250	CoarseC:	40

	CoarseC120	CoarseC121	CoarseC122	CoarseC123	CoarseC124	CoarseC125	CoarseC126	CoarseC127	CoarseC128	CoarseC129	CoarseC130	CoarseC131	CoarseC132	CoarseC133	CoarseC134	CoarseC135	CoarseC136	CoarseC137	CoarseC138	CoarseC139	CoarseC140	
CoarseR80	-9.53383e-011	-9.2321e-011	-8.93022e-011	-8.58274e-011	-8.28765e-011	-8.02228e-011	-7.70135e-011	-7.42434e-011	-7.05764e-011	-6.81886e-011	-6.54274e-011	-6.23967e-011	-5.93647e-011	-5.65197e-011	-5.38201e-011	-5.09711e-011	-4.77471e-011	-4.54318e-011	-4.26458e-011	-3.96049e-011	-3.70202e-011	
CoarseR81	-9.03798e-011	-8.73611e-011	-8.43384e-011	-8.1048e-011	-7.73871e-011	-7.48162e-011	-7.17909e-011	-6.90204e-011	-6.53516e-011	-6.2963e-011	-6.03872e-011	-5.73558e-011	-5.43914e-011	-5.15457e-011	-4.87773e-011	-4.61945e-011	-4.29574e-011	-4.06408e-011	-3.76003e-011	-3.48242e-011	-3.22271e-011	
CoarseR82	-8.51171e-011	-8.22802e-011	-7.93318e-011	-7.60523e-011	-7.28315e-011	-6.99915e-011	-6.65941e-011	-6.40091e-011	-6.0526e-011	-5.82179e-011	-5.53738e-011	-5.26085e-011	-4.93872e-011	-4.66076e-011	-4.37603e-011	-4.09888e-011	-3.79497e-011	-3.56318e-011	-3.2657e-011	-2.99942e-011	-2.74703e-011	
CoarseR83	-8.0596e-011	-7.75758e-011	-7.43679e-011	-7.15286e-011	-6.8123e-011	-6.55502e-011	-6.2255e-011	-5.94128e-011	-5.58124e-011	-5.34329e-011	-5.04006e-011	-4.80788e-011	-4.48562e-011	-4.22657e-011	-3.93048e-011	-3.64558e-011	-3.32274e-011	-3.08312e-011	-2.83098e-011	-2.53421e-011	-2.27447e-011	
CoarseR84	-7.56154e-011	-7.23252e-011	-6.97453e-011	-6.63505e-011	-6.30546e-011	-6.04828e-011	-5.72675e-011	-5.44243e-011	-5.10101e-011	-4.88868e-011	-4.58532e-011	-4.30853e-011	-3.97829e-011	-3.74585e-011	-3.42316e-011	-3.18366e-011	-2.86727e-011	-2.65409e-011	-2.33079e-011	-2.09763e-011	-1.79298e-011	
CoarseR85	-7.12981e-011	-6.82757e-011	-6.50648e-011	-6.17713e-011	-5.85573e-011	-5.57148e-011	-5.27572e-011	-4.97264e-011	-4.6498e-011	-4.41152e-011	-4.10806e-011	-3.8758e-011	-3.55323e-011	-3.26836e-011	-2.99019e-011	-2.73173e-011	-2.41598e-011	-2.18299e-011	-1.87846e-011	-1.61955e-011	-1.36691e-011	
CoarseR86	-6.62495e-011	-6.32994e-011	-6.04585e-011	-5.6977e-011	-5.37543e-011	-5.13738e-011	-4.81484e-011	-4.53836e-011	-4.18954e-011	-3.95041e-011	-3.67348e-011	-3.35089e-011	-3.0919e-011	-2.8145e-011	-2.53639e-011	-2.27763e-011	-1.95431e-011	-1.69526e-011	-1.41669e-011	-1.16479e-011	-8.59877e-012	
CoarseR87	-6.16903e-011	-5.86658e-011	-5.54519e-011	-5.24243e-011	-4.89397e-011	-4.66234e-011	-4.34032e-011	-4.03699e-011	-3.71402e-011	-3.47539e-011	-3.21657e-011	-2.93932e-011	-2.58986e-011	-2.33135e-011	-2.07956e-011	-1.82083e-011	-1.49735e-011	-1.23819e-011	-9.40247e-012	-7.00146e-012	-4.47344e-012	
CoarseR88	-5.7178e-011	-5.41521e-011	-5.11247e-011	-4.78259e-011	-4.48691e-011	-4.21044e-011	-3.88048e-011	-3.62246e-011	-3.25447e-011	-3.02289e-011	-2.73798e-011	-2.46008e-011	-2.1825e-011	-1.89735e-011	-1.59999e-011	-1.36018e-011	-1.06298e-011	-8.22996e-012	-5.25006e-012	-2.46374e-012	-1.29153e-013	
CoarseR89	-5.23709e-011	-4.95288e-011	-4.65009e-011	-4.32826e-011	-4.03248e-011	-3.76682e-011	-3.44454e-011	-3.16762e-011	-2.82559e-011	-2.58621e-011	-2.32778e-011	-2.02374e-011	-1.77215e-011	-1.46787e-011	-1.16342e-011	-9.11689e-012	-6.32952e-012	-3.73757e-012	-6.87404e-013	1.64649e-012	4.43588e-012	
CoarseR90	-4.82528e-011	-4.50359e-011	-4.21954e-011	-3.89752e-011	-3.54868e-011	-3.29065e-011	-2.98714e-011	-2.70974e-011	-2.36791e-011	-2.14747e-011	-1.86989e-011	-1.61838e-011	-1.31402e-011	-1.02869e-011	-7.57563e-012	-4.72058e-012	-1.93589e-012	3.96074e-013	3.44731e-012	6.04207e-012	8.57227e-012	
CoarseR91	-4.37351e-011	-4.07055e-011	-3.78605e-011	-3.46388e-011	-3.14127e-011	-2.88312e-011	-2.55292e-011	-2.27571e-011	-1.95251e-011	-1.71322e-011	-1.46181e-011	-1.17654e-011	-8.52993e-012	-5.94014e-012	-3.15522e-012	-5.63424e-013	2.41615e-012	4.7487e-012	7.53775e-012	1.03287e-011	1.2926e-011	
CoarseR92	-3.93676e-011	-3.66024e-011	-3.38371e-011	-3.03472e-011	-2.71219e-011	-2.47296e-011	-2.14245e-011	-1.86514e-011	-1.53034e-011	-1.32883e-011	-1.02456e-011	-7.65696e-012	-4.68324e-012	-1.90024e-012	9.55573e-013	3.4789e-012	6.52842e-012	8.86202e-012	1.18462e-011	1.44436e-011	1.6783e-011	
CoarseR93	-3.53249e-011	-3.22932e-011	-2.92592e-011	-2.62213e-011	-2.29949e-011	-2.06021e-011	-1.73728e-011	-1.45973e-011	-1.10996e-011	-8.96776e-012	-6.37895e-012	-3.5976e-012	-3.5886e-013	2.42579e-012	4.75576e-012	7.61343e-012	1.04024e-011	1.27357e-011	1.59833e-011	1.85147e-011	2.06588e-011	
CoarseR94	-3.09908e-011	-2.79538e-011	-2.49197e-011	-2.21501e-011	-1.84652e-011	-1.63368e-011	-1.31057e-011	-1.05186e-011	-7.01962e-012	-4.88684e-012	-1.84152e-012	7.49472e-013	3.53291e-012	6.51128e-012	9.10502e-012	1.17003e-011	1.44906e-011	1.70192e-011	1.98804e-011	2.215e-011	2.5013e-011	
CoarseR95	-2.68958e-011	-2.38617e-011	-2.10135e-011	-1.77857e-011	-1.48225e-011	-1.22392e-011	-9.19535e-012	-6.15269e-012	-3.18223e-012	-7.8389e-013	1.999e-012	4.85536e-012	7.83394e-012	1.04991e-011	1.32161e-011	1.56197e-011	1.86033e-011	2.11348e-011	2.39973e-011	2.65304e-011	2.91326e-011	
CoarseR96	-2.27818e-011	-1.97421e-011	-1.6971e-011	-1.36672e-011	-1.07029e-011	-8.30753e-012	-5.07287e-012	-2.2191e-012	9.44462e-013	3.34347e-012	6.12772e-012	8.98491e-012	1.15064e-011	1.41021e-011	1.71556e-011	1.99478e-011	2.25441e-011	2.5077e-011	2.74134e-011	3.0212e-011	3.28126e-011	
CoarseR97	-1.89851e-011	-1.61354e-011	-1.30974e-011	-9.86578e-012	-6.82436e-012	-4.23901e-012	-1.19275e-012	1.58805e-012	5.09152e-012	7.2274e-012	9.74633e-012	1.26047e-011	1.58502e-011	1.81808e-011	2.0973e-011	2.38347e-011	2.6364e-011	2.89653e-011	3.14981e-011	3.41016e-011	3.69032e-011	
CoarseR98	-1.482e-011	-1.17819e-011	-8.93048e-012	-5.96618e-012	-2.46643e-012	-6.95918e-014	2.90011e-012	5.6829e-012	8.99681e-012	1.11337e-011	1.39168e-011	1.65128e-011	1.9497e-011	2.20954e-011	2.48847e-011	2.7486e-011	3.05441e-011	3.26197e-011	3.568e-011	3.80185e-011	4.08216e-011	
CoarseR99	-1.07129e-011	-7.86156e-012	-5.09072e-012	-2.0486e-012	1.18801e-012	3.77886e-012	6.74983e-012	9.60688e-012	1.28498e-011	1.49879e-011	1.80401e-011	2.03694e-011	2.34243e-011	2.62182e-011	2.8746e-011	3.11532e-011	3.41413e-011	3.67452e-011	3.9547e-011	4.18864e-011	4.44959e-011	
CoarseR100	-6.84926e-012	-3.80831e-012	-1.225e-012	1.81867e-012	5.05722e-012	7.64947e-012	1.05065e-011	1.32862e-011	1.67249e-011	1.91274e-011	2.15305e-011	2.4248e-011	2.73046e-011	2.99055e-011	3.24342e-011	3.52332e-011	3.80341e-011	4.04445e-011	4.31763e-011	4.57844e-011	4.83244e-011	
MinCout:	-6.95918e-014	CoarseR:	98	CoarseC:	125

	FineC0	FineC10	FineC20	FineC30	FineC40	FineC50	FineC60	FineC70	FineC80	FineC90	FineC100	FineC110	FineC120	FineC130	FineC140	FineC150	FineC160	FineC170	FineC180	FineC190	FineC200	FineC210	FineC220	FineC230	FineC240	FineC250	
FineR0	-2.2201e-010	-1.8598e-010	-1.62322e-010	-1.44294e-010	-1.29851e-010	-1.18197e-010	-1.08694e-010	-1.00551e-010	-9.3234e-011	-8.78908e-011	-8.22859e-011	-7.77704e-011	-7.38919e-011	-7.02112e-011	-6.70478e-011	-6.41934e-011	-6.16821e-011	-5.93424e-011	-5.72049e-011	-5.5066e-011	-5.305e-011	-5.15552e-011	-4.98678e-011	-4.83078e-011	-4.70768e-011	-4.60341e-011	
FineR10	-1.89605e-010	-1.54196e-010	-1.3106e-010	-1.12843e-010	-9.89367e-011	-8.73565e-011	-7.79339e-011	-6.99651e-011	-6.30756e-011	-5.75406e-011	-5.20466e-011	-4.7862e-011	-4.37224e-011	-4.02926e-011	-3.70577e-011	-3.42677e-011	-3.19387e-011	-2.93438e-011	-2.72029e-011	-2.52512e-011	-2.3563e-011	-2.20669e-011	-2.05702e-011	-1.88787e-011	-1.73149e-011	-1.62715e-011	
FineR20	-1.75224e-010	-1.4008e-010	-1.1711e-010	-9.93443e-011	-8.50681e-011	-7.3661e-011	-6.46056e-011	-5.66348e-011	-4.98248e-011	-4.37603e-011	-3.88602e-011	-3.42663e-011	-3.06499e-011	-2.70293e-011	-2.33356e-011	-2.1002e-011	-1.82152e-011	-1.62655e-011	-1.41234e-011	-1.19798e-011	-1.02904e-011	-8.79396e-012	-7.29684e-012	-5.53744e-012	-4.49452e-012	-2.99523e-012	
FineR30	-1.67235e-010	-1.31919e-010	-1.09036e-010	-9.10833e-011	-7.73377e-011	-6.61149e-011	-5.68701e-011	-4.88967e-011	-4.20085e-011	-3.59452e-011	-3.12335e-011	-2.67852e-011	-2.29023e-011	-1.92105e-011	-1.62323e-011	-1.3182e-011	-1.0658e-011	-8.25225e-012	-6.10918e-012	-4.61076e-012	-2.46893e-012	-7.77717e-013	5.27369e-013	2.02538e-012	3.06829e-012	4.37147e-012	
FineR40	-1.61846e-010	-1.26882e-010	-1.03916e-010	-8.59599e-011	-7.25791e-011	-6.09012e-011	-5.16572e-011	-4.36877e-011	-3.72512e-011	-3.12602e-011	-2.60244e-011	-2.20283e-011	-1.7884e-011	-1.42624e-011	-1.08309e-011	-8.49784e-012	-5.90072e-012	-3.30308e-012	-1.15972e-012	5.29302e-013	2.21971e-012	3.97973e-012	5.47703e-012	6.77965e-012	8.27825e-012	9.3217e-012	
FineR50	-1.5841e-010	-1.2344e-010	-1.00199e-010	-8.26886e-011	-6.85941e-011	-5.71832e-011	-4.79381e-011	-4.02303e-011	-3.35266e-011	-2.75374e-011	-2.25629e-011	-1.82289e-011	-1.44207e-011	-1.07982e-011	-7.74989e-012	-4.50651e-012	-2.43568e-012	-2.98123e-014	2.11372e-012	4.06624e-012	5.7567e-012	7.25327e-012	9.01158e-012	1.02465e-011	1.15522e-011	1.28564e-011	
FineR60	-1.55785e-010	-1.20632e-010	-9.75748e-011	-7.97973e-011	-6.57811e-011	-5.45575e-011	-4.53146e-011	-3.76039e-011	-3.0976e-011	-2.48352e-011	-2.02006e-011	-1.56752e-011	-1.17925e-011	-8.09944e-012	-5.12158e-012	-2.33452e-012	4.5506e-013	2.33547e-012	4.47936e-012	6.62471e-012	8.38211e-012	1.03369e-011	1.13784e-011	1.28764e-011	1.39192e-011	1.54866e-011	
FineR70	-1.53304e-010	-1.18318e-010	-9.55344e-011	-7.7754e-011	-6.40068e-011	-5.27825e-011	-4.32721e-011	-3.55636e-011	-2.86699e-011	-2.30582e-011	-1.7895e-011	-1.36345e-011	-9.75194e-012	-6.32137e-012	-3.08085e-012	-5.56027e-013	2.0404e-012	4.63984e-012	6.78368e-012	8.92899e-012	1.04247e-011	1.21165e-011	1.36139e-011	1.46561e-011	1.62232e-011	1.72665e-011	
FineR80	-1.51937e-010	-1.1679e-010	-9.38221e-011	-7.6311e-011	-6.24821e-011	-5.10699e-011	-4.15593e-011	-3.38506e-011	-2.74126e-011	-2.13449e-011	-1.66346e-011	-1.19196e-011	-8.03822e-012	-4.60764e-012	-1.3669e-012	1.15792e-012	3.75572e-012	6.09068e-012	8.0403e-012	9.99266e-012	1.19462e-011	1.34425e-011	1.48726e-011	1.63706e-011	1.79379e-011	1.89812e-011	
FineR90	-1.50396e-010	-1.15426e-010	-9.26292e-011	-7.51186e-011	-6.10237e-011	-4.96124e-011	-4.0369e-011	-3.23941e-011	-2.59567e-011	-2.023e-011	-1.52548e-011	-1.09206e-011	-6.84803e-012	-3.41721e-012	-1.75519e-013	2.61204e-012	5.20972e-012	7.54465e-012	9.49594e-012	1.11839e-011	1.31368e-011	1.46331e-011	1.6326e-011	1.78239e-011	1.91286e-011	2.01719e-011	
FineR100	-1.49471e-010	-1.14486e-010	-9.15169e-011	-7.37352e-011	-5.99082e-011	-4.84957e-011	-3.925e-011	-3.12743e-011	-2.4646e-011	-1.90335e-011	-1.40591e-011	-9.53512e-012	-5.72543e-012	-2.29462e-012	9.46646e-013	3.73461e-012	6.13891e-012	8.47421e-012	1.03567e-011	1.257e-011	1.45236e-011	1.60199e-011	1.72542e-011	1.85587e-011	2.02533e-011	2.15592e-011	
FineR110	-1.48341e-010	-1.13188e-010	-9.06581e-011	-7.27958e-011	-5.9049e-011	-4.7825e-011	-3.8581e-011	-3.04157e-011	-2.3712e-011	-1.81e-011	-1.27453e-011	-8.67565e-012	-4.86611e-012	-1.17096e-012	1.87818e-012	4.40278e-012	6.99943e-012	9.33592e-012	1.14801e-011	1.34307e-011	1.51215e-011	1.66179e-011	1.8115e-011	1.96818e-011	2.09208e-011	2.22232e-011	
FineR120	-1.47478e-010	-1.12768e-010	-8.95277e-011	-7.22034e-011	-5.81875e-011	-4.69647e-011	-3.77194e-011	-2.97404e-011	-2.3116e-011	-1.73128e-011	-1.23382e-011	-7.81399e-012	-3.73994e-012	-7.65323e-013	2.47617e-012	5.45653e-012	7.86113e-012	1.01961e-011	1.21473e-011	1.42925e-011	1.57879e-011	1.74798e-011	1.92394e-011	2.02812e-011	2.17796e-011	2.28228e-011	
FineR130	-1.46432e-010	-1.11991e-010	-8.89227e-011	-7.15997e-011	-5.75861e-011	-4.63628e-011	-3.68526e-011	-2.91442e-011	-2.2251e-011	-1.66393e-011	-1.12847e-011	-7.21607e-012	-3.14172e-012	9.69863e-014	3.53075e-012	5.86235e-012	8.65275e-012	1.07954e-011	1.29395e-011	1.4697e-011	1.65807e-011	1.81465e-011	1.95768e-011	2.13373e-011	2.26422e-011	2.39478e-011	
FineR140	-1.45822e-010	-1.11298e-010	-8.83302e-011	-7.05496e-011	-5.68021e-011	-4.55775e-011	-3.63327e-011	-2.8543e-011	-2.14627e-011	-1.58502e-011	-1.11404e-011	-6.61644e-012	-2.54238e-012	8.88184e-013	4.12963e-012	6.46098e-012	9.25123e-012	1.13938e-011	1.37325e-011	1.54902e-011	1.71811e-011	1.89403e-011	2.04373e-011	2.1935e-011	2.29774e-011	2.45454e-011	
FineR150	-1.45483e-010	-1.10333e-010	-8.77224e-011	-7.00346e-011	-5.61984e-011	-4.49747e-011	-3.57298e-011	-2.79409e-011	-2.11266e-011	-1.55142e-011	-1.05401e-011	-5.82476e-012	-2.20661e-012	1.41587e-012	4.4653e-012	6.9899e-012	9.58679e-012	1.19924e-011	1.41362e-011	1.60187e-011	1.79724e-011	1.95383e-011	2.07727e-011	2.22704e-011	2.35751e-011	2.48807e-011	
FineR160	-1.4487e-010	-1.09995e-010	-8.71989e-011	-6.96884e-011	-5.55934e-011	-4.43707e-011	-3.53932e-011	-2.74145e-011	-2.07903e-011	-1.49129e-011	-9.82279e-012	-5.4886e-012	-1.87053e-012	1.75187e-012	4.99351e-012	7.58828e-012	1.01859e-011	1.2521e-011	1.44721e-011	1.63545e-011	1.83082e-011	1.98045e-011	2.15644e-011	2.26061e-011	2.41044e-011	2.54101e-011	
FineR170	-1.44621e-010	-1.09641e-010	-8.68597e-011	-6.93498e-011	-5.50671e-011	-4.41113e-011	-3.48663e-011	-2.68118e-011	-2.02629e-011	-1.46504e-011	-9.48489e-012	-4.96067e-012	-1.34246e-012	2.3518e-012	5.329e-012	8.1169e-012	1.07147e-011	1.27865e-011	1.50011e-011	1.71465e-011	1.86419e-011	2.05964e-011	2.20934e-011	2.31351e-011	2.47027e-011	2.59393e-011	
FineR180	-1.44097e-010	-1.09116e-010	-8.63342e-011	-6.88238e-011	-5.49896e-011	-4.35845e-011	-3.45242e-011	-2.65503e-011	-1.96579e-011	-1.41206e-011	-8.95693e-012	-4.88764e-012	-5.49982e-013	2.42438e-012	5.66526e-012	8.4531e-012	1.12435e-011	1.3386e-011	1.553e-011	1.74824e-011	1.9171e-011	2.0863e-011	2.21667e-011	2.39273e-011	2.49697e-011	2.6275e-011	
FineR190	-1.43572e-010	-1.09048e-010	-8.6079e-011	-6.84759e-011	-5.47303e-011	-4.32407e-011	-3.42635e-011	-2.62885e-011	-1.93955e-011	-1.40486e-011	-9.07453e-012	-4.55087e-012	-2.8552e-013	3.21675e-012	5.93035e-012	8.9819e-012	1.13152e-011	1.39151e-011	1.60592e-011	1.77489e-011	1.97002e-011	2.1199e-011	2.24336e-011	2.40009e-011	2.52369e-011	2.62801e-011	
FineR200	-1.43341e-010	-1.08624e-010	-8.56487e-011	-6.80403e-011	-5.42115e-011	-4.29864e-011	-3.34744e-011	-2.57645e-011	-1.91357e-011	-1.33333e-011	-8.35747e-012	-3.83136e-012	-2.1272e-013	3.41026e-012	6.38854e-012	9.44105e-012	1.18457e-011	1.41812e-011	1.61326e-011	1.82783e-011	1.97738e-011	2.1466e-011	2.29632e-011	2.40051e-011	2.57667e-011	2.66161e-011	
FineR210	-1.43071e-010	-1.07997e-010	-8.55668e-011	-6.7782e-011	-5.41328e-011	-4.25369e-011	-3.34795e-011	-2.54988e-011	-1.90608e-011	-1.29921e-011	-8.09263e-012	-4.02268e-012	1.24216e-013	3.48272e-012	7.1813e-012	9.51285e-012	1.2304e-011	1.42526e-011	1.65916e-011	1.85445e-011	2.00401e-011	2.15365e-011	2.3493e-011	2.47286e-011	2.60336e-011	2.71428e-011	
FineR220	-1.42819e-010	-1.07742e-010	-8.52143e-011	-6.77019e-011	-5.3685e-011	-4.24595e-011	-3.29469e-011	-2.51572e-011	-1.8342e-011	-1.27288e-011	-7.75396e-012	-3.30229e-012	5.80615e-013	4.01117e-012	7.06052e-012	9.77724e-012	1.23756e-011	1.45184e-011	1.66628e-011	1.86154e-011	2.03041e-011	2.19964e-011	2.33002e-011	2.50612e-011	2.61037e-011	2.71468e-011	
FineR230	-1.42731e-010	-1.07743e-010	-8.47712e-011	-6.74344e-011	-5.36063e-011	-4.2193e-011	-3.28703e-011	-2.51572e-011	-1.8267e-011	-1.24634e-011	-7.75369e-012	-3.22921e-012	6.5362e-013	4.27613e-012	7.25399e-012	1.01126e-011	1.264e-011	1.50458e-011	1.71899e-011	1.8947e-011	2.06376e-011	2.21336e-011	2.36303e-011	2.51277e-011	2.6433e-011	2.79317e-011	
FineR240	-1.42349e-010	-1.07202e-010	-8.44075e-011	-6.70851e-011	-5.32517e-011	-4.21093e-011	-3.2789e-011	-2.46255e-011	-1.81893e-011	-1.23872e-011	-7.67872e-012	-2.89074e-012	7.26485e-013	4.34806e-012	7.58922e-012	1.03771e-011	1.27097e-011	1.5115e-011	1.69957e-011	1.89477e-011	2.07053e-011	2.23969e-011	2.41567e-011	2.51981e-011	2.6696e-011	2.77388e-011	
FineR250	-1.42076e-010	-1.07374e-010	-8.43243e-011	-6.68168e-011	-5.29847e-011	-4.17645e-011	-3.20714e-011	-2.45496e-011	-1.76583e-011	-1.20477e-011	-6.95896e-012	-2.62562e-012	7.26961e-013	4.87658e-012	7.66103e-012	1.06411e-011	1.30447e-011	1.5381e-011	1.73299e-011	1.94769e-011	2.11652e-011	2.2661e-011	2.41576e-011	2.56587e-011	2.67664e-011	2.82658e-011	
MinCout:	-2.98123e-014	FineR:	50	FineC:	170

	FineC120	FineC121	FineC122	FineC123	FineC124	FineC125	FineC126	FineC127	FineC128	FineC129	FineC130	FineC131	FineC132	FineC133	FineC134	FineC135	FineC136	FineC137	FineC138	FineC139	FineC140	
FineR150	-2.47065e-012	-2.01478e-012	-1.55897e-012	-1.10333e-012	-9.11512e-013	-2.63918e-013	-2.63882e-013	3.83818e-013	5.75762e-013	1.03171e-012	1.48749e-012	1.67971e-012	1.87173e-012	2.06376e-012	2.51992e-012	2.97571e-012	3.16824e-012	3.62404e-012	3.8167e-012	4.27252e-012	4.4647e-012	
FineR151	-2.20661e-012	-1.75078e-012	-1.29517e-012	-1.10336e-012	-9.11512e-013	-4.55779e-013	-7.20321e-014	3.83818e-013	1.03169e-012	1.29554e-012	1.48751e-012	1.67971e-012	2.13551e-012	2.51992e-012	2.51992e-012	3.16825e-012	3.16824e-012	3.36036e-012	3.8167e-012	4.27252e-012	4.27252e-012	
FineR152	-1.94257e-012	-1.48678e-012	-1.5592e-012	-9.11655e-013	-6.47653e-013	-4.55803e-013	1.91897e-013	3.83818e-013	8.39738e-013	1.03169e-012	1.48771e-012	1.67971e-012	2.13553e-012	2.32786e-012	2.51992e-012	2.97614e-012	3.43196e-012	3.62408e-012	4.0804e-012	4.27257e-012	4.27252e-012	
FineR153	-1.94257e-012	-1.48678e-012	-1.29519e-012	-6.47666e-013	-3.837e-013	-4.55803e-013	1.91897e-013	6.47795e-013	1.10361e-012	1.29556e-012	1.48771e-012	1.67971e-012	2.13582e-012	2.59164e-012	2.7837e-012	3.2399e-012	3.16825e-012	3.43196e-012	3.81673e-012	4.27314e-012	4.72898e-012	
FineR154	-1.94257e-012	-1.67853e-012	-1.29519e-012	-8.39385e-013	-3.837e-013	-1.9185e-013	0	4.55803e-013	8.39739e-013	1.10361e-012	1.75155e-012	1.94356e-012	2.13582e-012	2.32787e-012	2.7837e-012	3.2399e-012	3.43201e-012	3.69569e-012	4.0804e-012	4.0804e-012	4.72898e-012	
FineR155	-1.87028e-012	-1.67854e-012	-1.29519e-012	-6.47666e-013	-6.47666e-013	-1.9185e-013	4.55827e-013	1.91897e-013	1.10361e-012	1.29556e-012	1.48772e-012	1.94356e-012	1.94352e-012	2.59164e-012	2.59164e-012	2.97617e-012	3.43201e-012	3.88831e-012	3.81673e-012	4.3441e-012	4.72898e-012	
FineR156	-2.13434e-012	-1.48699e-012	-1.03118e-012	-5.75515e-013	-6.47666e-013	-1.91886e-013	0	4.55827e-013	1.10364e-012	1.36748e-012	1.7516e-012	1.75155e-012	2.39964e-012	2.59169e-012	2.85543e-012	3.50367e-012	3.50367e-012	3.62461e-012	3.88831e-012	4.3441e-012	4.72906e-012	
FineR157	-1.87027e-012	-1.67854e-012	-1.03118e-012	-7.6721e-013	-3.83677e-013	7.21037e-014	0	4.55827e-013	1.10364e-012	1.36748e-012	1.7516e-012	2.2074e-012	2.39964e-012	2.85543e-012	2.85543e-012	3.23997e-012	3.50367e-012	4.15204e-012	3.88831e-012	4.3441e-012	4.99265e-012	
FineR158	-1.87027e-012	-1.22295e-012	-1.22295e-012	-7.6721e-013	-3.83677e-013	-1.19746e-013	2.63965e-013	5.27859e-013	9.117e-013	1.36748e-012	1.7516e-012	2.0154e-012	2.3997e-012	2.66346e-012	3.04794e-012	3.23997e-012	3.69624e-012	3.88838e-012	4.15204e-012	4.53694e-012	4.80056e-012	
FineR159	-1.67878e-012	-1.22295e-012	-1.22295e-012	-5.7548e-013	-1.19687e-013	-1.91874e-013	2.63965e-013	7.19815e-013	1.1756e-012	1.55967e-012	1.82349e-012	2.47152e-012	2.20766e-012	2.59208e-012	2.85586e-012	3.31167e-012	3.96001e-012	3.96001e-012	4.6085e-012	4.34475e-012	4.80056e-012	
FineR160	-1.41469e-012	-1.41472e-012	-1.22295e-012	-5.7548e-013	-3.11526e-013	7.21269e-014	7.19875e-013	9.83756e-013	1.1756e-012	1.55967e-012	2.01548e-012	2.27924e-012	2.66356e-012	2.66356e-012	3.04794e-012	3.31167e-012	3.50376e-012	4.15216e-012	4.41578e-012	4.6085e-012	4.80056e-012	
FineR161	-1.6062e-012	-1.41469e-012	-1.22295e-012	-5.03282e-013	-3.11526e-013	7.21269e-014	3.36045e-013	7.19875e-013	1.17569e-012	1.55967e-012	1.82349e-012	2.20774e-012	2.47152e-012	2.66356e-012	3.31178e-012	3.50429e-012	3.69633e-012	3.96001e-012	4.6085e-012	4.6085e-012	4.80069e-012	
FineR162	-1.60641e-012	-1.41469e-012	-9.58896e-013	-3.11455e-013	-1.19688e-013	3.36128e-013	3.36045e-013	7.19875e-013	1.36776e-012	1.63161e-012	1.82359e-012	2.20774e-012	2.47152e-012	2.85594e-012	3.11969e-012	3.50429e-012	3.96013e-012	3.96001e-012	4.41593e-012	4.6085e-012	4.99351e-012	
FineR163	-1.60641e-012	-1.41469e-012	-7.6726e-013	-5.03282e-013	-1.19688e-013	7.21269e-014	6.0001e-013	7.19875e-013	1.36776e-012	1.63161e-012	1.82359e-012	2.47163e-012	2.20774e-012	3.11981e-012	3.11969e-012	3.31178e-012	3.768e-012	3.96013e-012	4.60863e-012	4.6085e-012	4.80069e-012	
FineR164	-1.34237e-012	-1.15061e-012	-7.6726e-013	-7.6726e-013	-3.11455e-013	1.44254e-013	3.36128e-013	9.83852e-013	1.43963e-012	1.63161e-012	1.82359e-012	2.2796e-012	2.47163e-012	2.73538e-012	3.11969e-012	3.57546e-012	3.768e-012	3.96013e-012	4.41645e-012	4.87224e-012	5.06504e-012	
FineR165	-1.60641e-012	-1.15082e-012	-6.95014e-013	-5.03199e-013	1.44349e-013	1.44349e-013	5.28025e-013	9.83852e-013	1.43963e-012	1.89553e-012	2.08751e-012	2.54349e-012	2.47163e-012	2.92774e-012	3.11981e-012	3.57601e-012	4.03181e-012	4.22394e-012	4.41645e-012	4.60863e-012	5.06504e-012	
FineR166	-1.34229e-012	-1.15061e-012	-6.9492e-013	-5.03199e-013	-4.75138e-014	3.36199e-013	7.92038e-013	1.05591e-012	1.17588e-012	1.63172e-012	2.08771e-012	2.27972e-012	2.73552e-012	3.19161e-012	3.11981e-012	3.83986e-012	3.76814e-012	4.4166e-012	4.68024e-012	4.87242e-012	5.06504e-012	
FineR167	-1.34229e-012	-8.8652e-013	-6.9492e-013	-4.74073e-014	1.44349e-013	1.44349e-013	7.92038e-013	1.05591e-012	1.43987e-012	1.63172e-012	2.35164e-012	2.27972e-012	2.73581e-012	3.19161e-012	3.38368e-012	3.76814e-012	3.76814e-012	4.22443e-012	4.68024e-012	4.68024e-012	5.0652e-012	
FineR168	-1.34229e-012	-1.07829e-012	-6.9492e-013	-4.30953e-013	-4.74073e-014	4.08385e-013	7.92038e-013	1.05591e-012	1.43987e-012	1.89567e-012	1.89553e-012	2.27972e-012	2.54349e-012	2.92787e-012	3.38368e-012	3.83986e-012	4.03198e-012	4.22394e-012	4.68024e-012	4.87242e-012	5.3288e-012	
FineR169	-1.34229e-012	-1.34229e-012	-6.9492e-013	-2.39138e-013	-4.74073e-014	4.08385e-013	1.05605e-012	7.92038e-013	1.7037e-012	1.89567e-012	2.35164e-012	2.54365e-012	2.80739e-012	3.19178e-012	3.38368e-012	3.83986e-012	4.03198e-012	4.03181e-012	4.94402e-012	4.87242e-012	5.3288e-012	
FineR170	-1.07817e-012	-8.86618e-013	-6.9492e-013	-2.39138e-013	-4.74073e-014	4.08385e-013	8.64141e-013	1.05605e-012	1.70386e-012	1.89567e-012	2.35164e-012	2.54365e-012	2.99971e-012	3.19178e-012	3.45547e-012	3.57616e-012	4.03198e-012	4.29562e-012	4.68042e-012	5.13678e-012	5.59256e-012	
MinCout:	0	FineR:	154	FineC:	126

