	CoarseC0	CoarseC10	CoarseC20	CoarseC30	CoarseC40	CoarseC50	CoarseC60	CoarseC70	CoarseC80	CoarseC90	CoarseC100	CoarseC110	CoarseC120	CoarseC130	CoarseC140	CoarseC150	CoarseC160	CoarseC170	CoarseC180	CoarseC190	CoarseC200	CoarseC210	CoarseC220	CoarseC230	CoarseC240	CoarseC250	
CoarseR0	-1.77714e-009	-1.76438e-009	-1.74744e-009	-1.72605e-009	-1.70122e-009	-1.67364e-009	-1.64264e-009	-1.60876e-009	-1.57301e-009	-1.5343e-009	-1.49202e-009	-1.44155e-009	-1.38924e-009	-1.33992e-009	-1.29423e-009	-1.25182e-009	-1.21185e-009	-1.1745e-009	-1.13923e-009	-1.10586e-009	-1.07501e-009	-1.04583e-009	-1.01851e-009	-9.9306e-010	-9.69269e-010	-9.46475e-010	
CoarseR10	-1.37116e-009	-1.3544e-009	-1.33462e-009	-1.31144e-009	-1.28569e-009	-1.25724e-009	-1.22668e-009	-1.19264e-009	-1.1564e-009	-1.11675e-009	-1.06772e-009	-1.01692e-009	-9.70401e-010	-9.2615e-010	-8.85097e-010	-8.47358e-010	-8.11124e-010	-7.76829e-010	-7.45286e-010	-7.15651e-010	-6.88135e-010	-6.6232e-010	-6.37598e-010	-6.14802e-010	-5.93654e-010	-5.73255e-010	
CoarseR20	-1.12482e-009	-1.10661e-009	-1.08526e-009	-1.06169e-009	-1.03432e-009	-1.00511e-009	-9.73736e-010	-9.38662e-010	-9.00864e-010	-8.53809e-010	-8.04057e-010	-7.57447e-010	-7.14669e-010	-6.74247e-010	-6.36157e-010	-6.00107e-010	-5.67041e-010	-5.35628e-010	-5.06623e-010	-4.79558e-010	-4.547e-010	-4.31042e-010	-4.08269e-010	-3.87539e-010	-3.67669e-010	-3.49423e-010	
CoarseR30	-9.59207e-010	-9.38907e-010	-9.16452e-010	-8.91505e-010	-8.63497e-010	-8.33396e-010	-8.00144e-010	-7.63984e-010	-7.20463e-010	-6.6967e-010	-6.22993e-010	-5.79508e-010	-5.39292e-010	-5.00914e-010	-4.64624e-010	-4.31099e-010	-4.0002e-010	-3.71018e-010	-3.44139e-010	-3.18615e-010	-2.95568e-010	-2.73363e-010	-2.52815e-010	-2.33312e-010	-2.15071e-010	-1.9772e-010	
CoarseR40	-8.39136e-010	-8.17751e-010	-7.93943e-010	-7.67813e-010	-7.38573e-010	-7.07024e-010	-6.72292e-010	-6.33372e-010	-5.82686e-010	-5.34592e-010	-4.9029e-010	-4.48651e-010	-4.09987e-010	-3.72751e-010	-3.38563e-010	-3.07067e-010	-2.77664e-010	-2.5049e-010	-2.25263e-010	-2.01347e-010	-1.79509e-010	-1.58709e-010	-1.39157e-010	-1.21104e-010	-1.03639e-010	-8.7367e-011	
CoarseR50	-7.48796e-010	-7.25665e-010	-7.00706e-010	-6.73274e-010	-6.42786e-010	-6.09811e-010	-5.72933e-010	-5.26324e-010	-4.76438e-010	-4.30156e-010	-3.87844e-010	-3.47337e-010	-3.09463e-010	-2.74282e-010	-2.41765e-010	-2.1202e-010	-1.84122e-010	-1.58016e-010	-1.3393e-010	-1.11432e-010	-9.04792e-011	-7.09866e-011	-5.23163e-011	-3.48158e-011	-1.88119e-011	-3.41442e-012	
CoarseR60	-6.77982e-010	-6.52971e-010	-6.26749e-010	-5.97994e-010	-5.66391e-010	-5.3171e-010	-4.9201e-010	-4.39647e-010	-3.91639e-010	-3.4705e-010	-3.05678e-010	-2.65668e-010	-2.29727e-010	-1.95348e-010	-1.64495e-010	-1.36168e-010	-1.09203e-010	-8.47222e-011	-6.15327e-011	-3.99326e-011	-2.00978e-011	-1.09183e-012	1.66159e-011	3.30172e-011	4.85601e-011	6.30764e-011	
CoarseR70	-6.20271e-010	-5.94159e-010	-5.66356e-010	-5.36364e-010	-5.02815e-010	-4.66635e-010	-4.19509e-010	-3.68706e-010	-3.21998e-010	-2.78456e-010	-2.36773e-010	-1.98437e-010	-1.63696e-010	-1.3102e-010	-1.01052e-010	-7.36058e-011	-4.79549e-011	-2.38942e-011	-1.88729e-012	1.88475e-011	3.78559e-011	5.5956e-011	7.32377e-011	8.8774e-011	1.03473e-010	1.17734e-010	
CoarseR80	-5.71782e-010	-5.4458e-010	-5.1637e-010	-4.84442e-010	-4.49989e-010	-4.11179e-010	-3.58615e-010	-3.09029e-010	-2.63606e-010	-2.19957e-010	-1.79514e-010	-1.42038e-010	-1.08682e-010	-7.68473e-011	-4.79141e-011	-2.13194e-011	3.61949e-012	2.68353e-011	4.80062e-011	6.78832e-011	8.66971e-011	1.03734e-010	1.20107e-010	1.35231e-010	1.49467e-010	1.6265e-010	
CoarseR90	-5.31567e-010	-5.03186e-010	-4.73259e-010	-4.40565e-010	-4.04295e-010	-3.5974e-010	-3.0669e-010	-2.57911e-010	-2.13076e-010	-1.69602e-010	-1.30261e-010	-9.43549e-011	-6.14512e-011	-3.06225e-011	-2.58714e-012	2.35816e-011	4.74975e-011	7.00828e-011	9.0657e-011	1.09901e-010	1.27857e-010	1.44662e-010	1.60218e-010	1.74894e-010	1.88222e-010	2.00967e-010	
CoarseR100	-4.96301e-010	-4.65963e-010	-4.35331e-010	-4.01373e-010	-3.63325e-010	-3.12747e-010	-2.61268e-010	-2.13186e-010	-1.67708e-010	-1.25332e-010	-8.68012e-011	-5.1792e-011	-1.99676e-011	1.00595e-011	3.79388e-011	6.3089e-011	8.60999e-011	1.0811e-010	1.28e-010	1.46637e-010	1.64196e-010	1.80348e-010	1.95429e-010	2.0947e-010	2.22595e-010	2.34663e-010	
CoarseR110	-4.65132e-010	-4.34203e-010	-4.02097e-010	-3.67163e-010	-3.2696e-010	-2.72591e-010	-2.21188e-010	-1.74006e-010	-1.28799e-010	-8.73247e-011	-4.96903e-011	-1.50073e-011	1.62975e-011	4.57058e-011	7.24923e-011	9.70226e-011	1.19934e-010	1.41312e-010	1.61076e-010	1.79058e-010	1.95887e-010	2.11413e-010	2.26092e-010	2.39431e-010	2.51887e-010	2.63441e-010	
CoarseR120	-4.3761e-010	-4.05625e-010	-3.72224e-010	-3.35922e-010	-2.91272e-010	-2.36304e-010	-1.8572e-010	-1.38031e-010	-9.34578e-011	-5.23875e-011	-1.60105e-011	1.82655e-011	4.88517e-011	7.73633e-011	1.03819e-010	1.28179e-010	1.4997e-010	1.70951e-010	1.90068e-010	2.08129e-010	2.24055e-010	2.3941e-010	2.53618e-010	2.6649e-010	2.78239e-010	2.89575e-010	
CoarseR130	-4.13455e-010	-3.80174e-010	-3.46199e-010	-3.08156e-010	-2.58095e-010	-2.03949e-010	-1.53611e-010	-1.05933e-010	-6.17866e-011	-2.14928e-011	1.44873e-011	4.77812e-011	7.77212e-011	1.05822e-010	1.32196e-010	1.5543e-010	1.77387e-010	1.97653e-010	2.16132e-010	2.33527e-010	2.49769e-010	2.64389e-010	2.7791e-010	2.90285e-010	3.02039e-010	3.12656e-010	
CoarseR140	-3.91586e-010	-3.5697e-010	-3.2195e-010	-2.82086e-010	-2.28438e-010	-1.74045e-010	-1.24609e-010	-7.61438e-011	-3.30602e-011	6.43771e-012	4.1902e-011	7.47491e-011	1.04085e-010	1.31833e-010	1.57074e-010	1.80697e-010	2.02189e-010	2.21842e-010	2.40088e-010	2.56771e-010	2.72338e-010	2.86731e-010	3.00034e-010	3.11968e-010	3.23454e-010	3.33294e-010	
CoarseR150	-3.71232e-010	-3.35804e-010	-2.99665e-010	-2.58245e-010	-2.01128e-010	-1.47672e-010	-9.74247e-011	-4.9744e-011	-7.05309e-012	3.18268e-011	6.71331e-011	9.92815e-011	1.28458e-010	1.5584e-010	1.80616e-010	2.03382e-010	2.24734e-010	2.439e-010	2.61798e-010	2.78237e-010	2.93317e-010	3.0749e-010	3.20284e-010	3.31913e-010	3.42391e-010	3.51971e-010	
CoarseR160	-3.53011e-010	-3.16431e-010	-2.78826e-010	-2.34172e-010	-1.76102e-010	-1.22944e-010	-7.23324e-011	-2.52011e-011	1.7147e-011	5.52406e-011	8.97224e-011	1.21607e-010	1.50415e-010	1.7722e-010	2.02391e-010	2.24449e-010	2.45046e-010	2.6461e-010	2.82e-010	2.98006e-010	3.12322e-010	3.2628e-010	3.38536e-010	3.49949e-010	3.60104e-010	3.69121e-010	
CoarseR170	-3.36234e-010	-2.9862e-010	-2.59864e-010	-2.11393e-010	-1.52959e-010	-1.00279e-010	-4.91975e-011	-2.54717e-012	3.8695e-011	7.67545e-011	1.11077e-010	1.42514e-010	1.70569e-010	1.97245e-010	2.21443e-010	2.43569e-010	2.63999e-010	2.83049e-010	2.99989e-010	3.15707e-010	3.30125e-010	3.4354e-010	3.55248e-010	3.66101e-010	3.76018e-010	3.84756e-010	
CoarseR180	-3.20205e-010	-2.82115e-010	-2.42022e-010	-1.89873e-010	-1.31929e-010	-7.90755e-011	-2.7507e-011	1.83683e-011	5.90906e-011	9.64025e-011	1.30696e-010	1.61635e-010	1.89888e-010	2.158e-010	2.39635e-010	2.61599e-010	2.81817e-010	3.0042e-010	3.17077e-010	3.32562e-010	3.46688e-010	3.59609e-010	3.71314e-010	3.81338e-010	3.90928e-010	3.99074e-010	
CoarseR190	-3.0562e-010	-2.66519e-010	-2.2557e-010	-1.69795e-010	-1.12634e-010	-5.87794e-011	-8.16885e-012	3.70604e-011	7.77477e-011	1.15014e-010	1.48666e-010	1.79216e-010	2.07337e-010	2.33045e-010	2.56937e-010	2.7843e-010	2.98008e-010	3.16285e-010	3.32736e-010	3.47993e-010	3.62096e-010	3.74475e-010	3.85592e-010	3.95853e-010	4.04585e-010	4.12383e-010	
CoarseR200	-2.92507e-010	-2.52077e-010	-2.09946e-010	-1.51434e-010	-9.44202e-011	-4.05568e-011	9.74757e-012	5.49811e-011	9.52096e-011	1.32114e-010	1.65106e-010	1.95799e-010	2.23129e-010	2.4906e-010	2.72249e-010	2.93452e-010	3.13285e-010	3.31688e-010	3.47556e-010	3.62592e-010	3.76124e-010	3.88138e-010	3.98983e-010	4.08405e-010	4.171e-010	4.24269e-010	
CoarseR210	-2.7974e-010	-2.38934e-010	-1.94862e-010	-1.34736e-010	-7.75664e-011	-2.26555e-011	2.68446e-011	7.15292e-011	1.11525e-010	1.48249e-010	1.81106e-010	2.11523e-010	2.38549e-010	2.63925e-010	2.87155e-010	3.08492e-010	3.27758e-010	3.45111e-010	3.61307e-010	3.75995e-010	3.89253e-010	4.0127e-010	4.11498e-010	4.20855e-010	4.28623e-010	4.35414e-010	
CoarseR220	-2.68211e-010	-2.25692e-010	-1.80426e-010	-1.18536e-010	-6.14132e-011	-6.42454e-012	4.26833e-011	8.7181e-011	1.2718e-010	1.63491e-010	1.95866e-010	2.25937e-010	2.53278e-010	2.78426e-010	3.01196e-010	3.22328e-010	3.41104e-010	3.58685e-010	3.74282e-010	3.88728e-010	4.01637e-010	4.13345e-010	4.23299e-010	4.32285e-010	4.39967e-010	4.45865e-010	
CoarseR230	-2.56601e-010	-2.13394e-010	-1.65544e-010	-1.03261e-010	-4.63518e-011	8.77832e-012	5.78937e-011	1.01805e-010	1.4113e-010	1.77309e-010	2.10025e-010	2.39926e-010	2.66553e-010	2.91851e-010	3.14638e-010	3.35175e-010	3.53954e-010	3.71304e-010	3.86873e-010	4.00701e-010	4.13666e-010	4.24173e-010	4.34576e-010	4.4265e-010	4.5054e-010	4.55763e-010	
CoarseR240	-2.45725e-010	-2.0165e-010	-1.50993e-010	-8.90127e-011	-3.11715e-011	2.33917e-011	7.18336e-011	1.15816e-010	1.55e-010	1.90766e-010	2.2333e-010	2.52788e-010	2.79662e-010	3.04496e-010	3.2707e-010	3.47346e-010	3.66458e-010	3.8319e-010	3.98261e-010	4.12291e-010	4.24627e-010	4.35683e-010	4.45173e-010	4.52846e-010	4.59828e-010	4.64871e-010	
CoarseR250	-2.35532e-010	-1.91087e-010	-1.38011e-010	-7.56231e-011	-1.74403e-011	3.66035e-011	8.53281e-011	1.28879e-010	1.67647e-010	2.03348e-010	2.35668e-010	2.64945e-010	2.91345e-010	3.1619e-010	3.385e-010	3.58536e-010	3.77287e-010	3.9433e-010	4.09389e-010	4.23131e-010	4.34816e-010	4.45797e-010	4.54883e-010	4.62488e-010	4.68788e-010	4.73506e-010	
MinCout:	-1.09183e-012	CoarseR:	60	CoarseC:	210

	CoarseC130	CoarseC131	CoarseC132	CoarseC133	CoarseC134	CoarseC135	CoarseC136	CoarseC137	CoarseC138	CoarseC139	CoarseC140	CoarseC141	CoarseC142	CoarseC143	CoarseC144	CoarseC145	CoarseC146	CoarseC147	CoarseC148	CoarseC149	CoarseC150	
CoarseR80	-7.70366e-011	-7.37692e-011	-7.11388e-011	-6.80582e-011	-6.52487e-011	-6.21652e-011	-5.92709e-011	-5.61852e-011	-5.36292e-011	-5.10039e-011	-4.79141e-011	-4.52753e-011	-4.24538e-011	-3.98249e-011	-3.70005e-011	-3.46281e-011	-3.18006e-011	-2.92297e-011	-2.65954e-011	-2.37632e-011	-2.15771e-011	
CoarseR81	-7.22039e-011	-6.89354e-011	-6.58551e-011	-6.32239e-011	-6.04134e-011	-5.7329e-011	-5.44343e-011	-5.13478e-011	-4.87915e-011	-4.57018e-011	-4.30748e-011	-4.05132e-011	-3.76136e-011	-3.47892e-011	-3.19631e-011	-2.95902e-011	-2.6761e-011	-2.43856e-011	-2.17459e-011	-1.91097e-011	-1.65333e-011	
CoarseR82	-6.73441e-011	-6.40741e-011	-6.08022e-011	-5.8443e-011	-5.55495e-011	-5.22732e-011	-4.96489e-011	-4.68221e-011	-4.37325e-011	-4.11052e-011	-3.82837e-011	-3.54604e-011	-3.25598e-011	-2.9994e-011	-2.7166e-011	-2.49847e-011	-2.23503e-011	-1.95182e-011	-1.71414e-011	-1.43063e-011	-1.1861e-011	
CoarseR83	-6.22626e-011	-5.92542e-011	-5.61718e-011	-5.33597e-011	-5.04649e-011	-4.76409e-011	-4.50157e-011	-4.1997e-011	-3.93688e-011	-3.60847e-011	-3.36473e-011	-3.1017e-011	-2.81827e-011	-2.51626e-011	-2.27218e-011	-2.0152e-011	-1.77095e-011	-1.4683e-011	-1.24991e-011	-9.66264e-012	-7.28318e-012	
CoarseR84	-5.74874e-011	-5.46691e-011	-5.15855e-011	-4.86909e-011	-4.58763e-011	-4.28599e-011	-4.04255e-011	-3.71432e-011	-3.43218e-011	-3.16844e-011	-2.886e-011	-2.64212e-011	-2.35939e-011	-2.07573e-011	-1.81227e-011	-1.5484e-011	-1.29154e-011	-1.00803e-011	-7.89627e-012	-4.86438e-012	-2.68557e-012	
CoarseR85	-5.28676e-011	-4.9593e-011	-4.65083e-011	-4.41482e-011	-4.13318e-011	-3.84346e-011	-3.56152e-011	-3.25945e-011	-2.98874e-011	-2.70633e-011	-2.45003e-011	-2.1598e-011	-1.87691e-011	-1.63969e-011	-1.35648e-011	-1.11217e-011	-8.28682e-012	-5.90995e-012	-3.07196e-012	-6.92695e-013	1.95389e-012	
CoarseR86	-4.8375e-011	-4.54802e-011	-4.22023e-011	-3.94984e-011	-3.69455e-011	-3.3663e-011	-3.10344e-011	-2.82059e-011	-2.53816e-011	-2.24801e-011	-1.96528e-011	-1.72825e-011	-1.44521e-011	-1.18161e-011	-8.97705e-012	-6.80165e-012	-3.96516e-012	-1.58773e-012	7.94911e-013	3.96672e-012	6.27953e-012	
CoarseR87	-4.37738e-011	-4.08784e-011	-3.80572e-011	-3.52395e-011	-3.23414e-011	-2.92505e-011	-2.64281e-011	-2.37925e-011	-2.0967e-011	-1.83342e-011	-1.55008e-011	-1.29393e-011	-1.00344e-011	-7.20089e-012	-4.82648e-012	-2.18444e-012	4.55662e-013	3.03193e-012	5.67417e-012	8.25386e-012	1.06311e-011	
CoarseR88	-3.91534e-011	-3.65235e-011	-3.34351e-011	-3.03453e-011	-2.77165e-011	-2.46242e-011	-2.22591e-011	-1.91641e-011	-1.65312e-011	-1.36988e-011	-1.08685e-011	-8.23235e-012	-5.86009e-012	-3.02524e-012	-1.88596e-013	2.18757e-012	4.63376e-012	7.66996e-012	1.00535e-011	1.26981e-011	1.50135e-011	
CoarseR89	-3.49569e-011	-3.21364e-011	-2.88535e-011	-2.57624e-011	-2.31324e-011	-2.07688e-011	-1.78672e-011	-1.45767e-011	-1.19427e-011	-9.37839e-012	-6.54623e-012	-4.10344e-012	-1.26559e-012	1.37392e-012	3.94428e-012	6.12566e-012	8.76824e-012	1.16108e-011	1.39909e-011	1.68367e-011	1.92192e-011	
CoarseR90	-3.06199e-011	-2.77986e-011	-2.47076e-011	-2.18077e-011	-1.8984e-011	-1.63498e-011	-1.37169e-011	-1.06921e-011	-7.86184e-012	-5.42034e-012	-2.39204e-012	-2.14991e-013	2.8894e-012	5.26393e-012	8.10344e-012	1.0283e-011	1.2661e-011	1.59681e-011	1.83508e-011	2.07327e-011	2.35816e-011	
CoarseR91	-2.6452e-011	-2.31674e-011	-2.0536e-011	-1.74427e-011	-1.48106e-011	-1.19839e-011	-9.6174e-012	-6.51852e-012	-3.68671e-012	-8.5264e-013	1.78695e-012	4.42675e-012	7.26482e-012	9.64006e-012	1.24814e-011	1.46629e-011	1.73079e-011	1.98875e-011	2.2735e-011	2.53834e-011	2.73039e-011	
CoarseR92	-2.17961e-011	-1.91658e-011	-1.58783e-011	-1.33221e-011	-1.08835e-011	-7.59097e-012	-5.15064e-012	-2.12355e-012	7.09969e-013	3.61707e-012	5.91786e-012	8.55924e-012	1.14689e-011	1.41136e-011	1.66892e-011	1.8871e-011	2.15173e-011	2.45612e-011	2.67463e-011	2.93303e-011	3.19809e-011	
CoarseR93	-1.79216e-011	-1.50986e-011	-1.18088e-011	-9.10104e-012	-6.46667e-012	-3.44214e-012	-1.00114e-012	2.02763e-012	4.86177e-012	7.50194e-012	1.01429e-011	1.2714e-011	1.51607e-011	1.80033e-011	2.03807e-011	2.30295e-011	2.56769e-011	2.82582e-011	3.06418e-011	3.37598e-011	3.58788e-011	
CoarseR94	-1.36791e-011	-1.06607e-011	-7.83413e-012	-4.93048e-012	-2.10073e-012	5.34449e-013	3.36744e-012	6.27442e-012	8.8427e-012	1.1679e-011	1.43215e-011	1.69648e-011	1.95385e-011	2.19154e-011	2.47615e-011	2.72119e-011	2.95943e-011	3.24426e-011	3.48276e-011	3.72154e-011	3.98685e-011	
CoarseR95	-9.83519e-012	-7.2041e-012	-3.71808e-012	-1.08198e-012	1.62732e-012	4.65627e-012	6.82826e-012	1.01288e-011	1.277e-011	1.53392e-011	1.79834e-011	2.08255e-011	2.3271e-011	2.585e-011	2.8495e-011	3.08799e-011	3.353e-011	3.61132e-011	3.84999e-011	4.08847e-011	4.37416e-011	
CoarseR96	-5.89245e-012	-2.3307e-012	2.26947e-013	2.86426e-012	5.77073e-012	8.33359e-012	1.0974e-011	1.40795e-011	1.6648e-011	1.9292e-011	2.22038e-011	2.45106e-011	2.74244e-011	3.00738e-011	3.2651e-011	3.48369e-011	3.74192e-011	4.00717e-011	4.26577e-011	4.53124e-011	4.72348e-011	
CoarseR97	-1.54219e-012	1.0938e-012	4.11729e-012	6.75572e-012	9.85834e-012	1.22267e-011	1.48673e-011	1.79744e-011	2.06183e-011	2.31894e-011	2.61027e-011	2.84785e-011	3.10596e-011	3.37091e-011	3.62892e-011	3.87424e-011	4.1395e-011	4.398e-011	4.63696e-011	4.89585e-011	5.14163e-011	
CoarseR98	2.1756e-012	5.00144e-012	8.10255e-012	1.07421e-011	1.35781e-011	1.62148e-011	1.90541e-011	2.19654e-011	2.46102e-011	2.69151e-011	2.97612e-011	3.24045e-011	3.5054e-011	3.76331e-011	3.98203e-011	4.26744e-011	4.50574e-011	4.79147e-011	5.03716e-011	5.24933e-011	5.51516e-011	
CoarseR99	6.30053e-012	9.40165e-012	1.20354e-011	1.4676e-011	1.75135e-011	2.06202e-011	2.27238e-011	2.58338e-011	2.84803e-011	3.10535e-011	3.35038e-011	3.61536e-011	3.87318e-011	4.13839e-011	4.39659e-011	4.61554e-011	4.88108e-011	5.13979e-011	5.40556e-011	5.66463e-011	5.88415e-011	
CoarseR100	1.02569e-011	1.3165e-011	1.59939e-011	1.8636e-011	2.12008e-011	2.41126e-011	2.69552e-011	2.95948e-011	3.24407e-011	3.50896e-011	3.76654e-011	4.03167e-011	4.26959e-011	4.555e-011	4.77395e-011	5.03243e-011	5.25162e-011	5.55697e-011	5.7764e-011	6.03561e-011	6.27534e-011	
MinCout:	-1.88596e-013	CoarseR:	88	CoarseC:	144

	FineC0	FineC10	FineC20	FineC30	FineC40	FineC50	FineC60	FineC70	FineC80	FineC90	FineC100	FineC110	FineC120	FineC130	FineC140	FineC150	FineC160	FineC170	FineC180	FineC190	FineC200	FineC210	FineC220	FineC230	FineC240	FineC250	
FineR0	-2.19361e-010	-1.84529e-010	-1.61801e-010	-1.44016e-010	-1.30134e-010	-1.18548e-010	-1.08889e-010	-1.00788e-010	-9.37856e-011	-8.78148e-011	-8.26417e-011	-7.80452e-011	-7.41787e-011	-7.01597e-011	-6.71299e-011	-6.41121e-011	-6.16535e-011	-5.90939e-011	-5.69176e-011	-5.49317e-011	-5.34105e-011	-5.14227e-011	-4.98999e-011	-4.83868e-011	-4.68625e-011	-4.58003e-011	
FineR10	-1.86502e-010	-1.52382e-010	-1.29838e-010	-1.12215e-010	-9.84119e-011	-8.69959e-011	-7.76776e-011	-6.9944e-011	-6.30152e-011	-5.70373e-011	-5.1786e-011	-4.74554e-011	-4.35044e-011	-3.98198e-011	-3.672e-011	-3.34915e-011	-3.10451e-011	-2.88669e-011	-2.67526e-011	-2.47676e-011	-2.25181e-011	-2.0995e-011	-1.95423e-011	-1.82121e-011	-1.715e-011	-1.53629e-011	
FineR20	-1.72127e-010	-1.38011e-010	-1.15463e-010	-9.83768e-011	-8.43002e-011	-7.30701e-011	-6.39337e-011	-5.58155e-011	-4.90751e-011	-4.33658e-011	-3.85693e-011	-3.39659e-011	-3.00901e-011	-2.63335e-011	-2.33016e-011	-2.01976e-011	-1.76238e-011	-1.5444e-011	-1.32627e-011	-1.108e-011	-9.55716e-012	-7.57245e-012	-6.2435e-012	-4.71843e-012	-3.65631e-012	-2.06288e-012	
FineR30	-1.63565e-010	-1.29802e-010	-1.07801e-010	-9.0349e-011	-7.63589e-011	-6.52089e-011	-5.55308e-011	-4.79528e-011	-4.11329e-011	-3.54948e-011	-3.04319e-011	-2.60969e-011	-2.21441e-011	-1.81914e-011	-1.51589e-011	-1.23224e-011	-9.9433e-012	-7.49584e-012	-5.31209e-012	-3.3264e-012	-1.60549e-012	-8.17548e-014	1.6416e-012	3.16708e-012	4.49347e-012	5.82393e-012	
FineR40	-1.58384e-010	-1.24786e-010	-1.02595e-010	-8.54146e-011	-7.10692e-011	-5.99182e-011	-5.07786e-011	-4.28496e-011	-3.61037e-011	-3.02008e-011	-2.54039e-011	-2.10678e-011	-1.66538e-011	-1.33556e-011	-1.03235e-011	-7.48656e-012	-4.91257e-012	-2.73155e-012	-5.4902e-013	1.70421e-012	3.42564e-012	4.94958e-012	6.47424e-012	7.99961e-012	9.32915e-012	1.0392e-011	
FineR50	-1.5459e-010	-1.20821e-010	-9.88152e-011	-8.16335e-011	-6.78218e-011	-5.6589e-011	-4.71809e-011	-3.9334e-011	-3.27773e-011	-2.70632e-011	-2.18832e-011	-1.72772e-011	-1.35186e-011	-9.8311e-012	-6.80111e-012	-3.96146e-012	-1.1214e-012	1.05981e-012	3.04652e-012	5.23059e-012	6.75355e-012	8.4763e-012	1.0001e-011	1.15265e-011	1.2854e-011	1.39168e-011	
FineR60	-1.51921e-010	-1.18152e-010	-9.60525e-011	-7.87743e-011	-6.48825e-011	-5.37301e-011	-4.43182e-011	-3.66598e-011	-3.01066e-011	-2.40085e-011	-1.89443e-011	-1.48013e-011	-1.06542e-011	-7.16109e-012	-4.12884e-012	-1.29092e-012	1.35239e-012	3.73106e-012	5.91555e-012	7.90221e-012	9.69263e-012	1.08823e-011	1.2673e-011	1.41985e-011	1.57934e-011	1.68563e-011	
FineR70	-1.49397e-010	-1.1635e-010	-9.37992e-011	-7.68898e-011	-6.28941e-011	-5.16531e-011	-4.24362e-011	-3.45832e-011	-2.77617e-011	-2.2126e-011	-1.7137e-011	-1.27247e-011	-8.84636e-012	-5.08593e-012	-2.24933e-012	1.05242e-012	3.16238e-012	5.80779e-012	7.99084e-012	9.51287e-012	1.15019e-011	1.30256e-011	1.50158e-011	1.60773e-011	1.76033e-011	1.89321e-011	
FineR80	-1.47654e-010	-1.14334e-010	-9.20574e-011	-7.51482e-011	-6.08816e-011	-5.01833e-011	-4.06943e-011	-3.28465e-011	-2.62896e-011	-2.0385e-011	-1.5589e-011	-1.07881e-011	-7.2985e-012	-3.34295e-012	-5.06442e-013	2.59967e-012	4.90414e-012	7.28335e-012	9.53781e-012	1.12562e-011	1.2978e-011	1.4769e-011	1.67596e-011	1.7821e-011	1.91467e-011	2.02093e-011	
FineR90	-1.46439e-010	-1.1312e-010	-9.08441e-011	-7.36638e-011	-5.98533e-011	-4.8701e-011	-3.94837e-011	-3.18244e-011	-2.4809e-011	-1.91733e-011	-1.39146e-011	-9.57742e-012	-5.62435e-012	-2.13144e-012	1.16804e-012	3.73904e-012	6.58008e-012	8.76178e-012	1.07486e-011	1.29331e-011	1.44561e-011	1.64464e-011	1.7704e-011	1.90324e-011	2.0558e-011	2.16208e-011	
FineR100	-1.45312e-010	-1.11713e-010	-8.94372e-011	-7.25284e-011	-5.87184e-011	-4.72931e-011	-3.83455e-011	-3.06866e-011	-2.39394e-011	-1.82263e-011	-1.29694e-011	-8.55739e-012	-4.48348e-012	-9.90242e-013	2.04209e-012	4.88095e-012	7.3287e-012	9.97393e-012	1.19604e-011	1.41446e-011	1.58665e-011	1.73902e-011	1.86478e-011	2.01761e-011	2.17684e-011	2.2831e-011	
FineR110	-1.44348e-010	-1.10854e-010	-8.8753e-011	-7.13827e-011	-5.77635e-011	-4.66113e-011	-3.72012e-011	-2.92723e-011	-2.29896e-011	-1.70821e-011	-1.18255e-011	-7.48746e-012	-3.80356e-012	-4.28599e-014	2.98909e-012	6.09556e-012	8.20393e-012	1.08509e-011	1.28357e-011	1.45562e-011	1.6742e-011	1.82658e-011	1.93263e-011	2.13185e-011	2.26441e-011	2.37759e-011	
FineR120	-1.4347e-010	-1.09963e-010	-8.76888e-011	-7.05063e-011	-5.68885e-011	-4.60069e-011	-3.6325e-011	-2.86665e-011	-2.19194e-011	-1.62065e-011	-1.14118e-011	-6.88002e-012	-2.65911e-012	4.92774e-013	3.79319e-012	6.70306e-012	9.34779e-012	1.15292e-011	1.34447e-011	1.56293e-011	1.74192e-011	1.91423e-011	2.06667e-011	2.19947e-011	2.32539e-011	2.48499e-011	
FineR130	-1.4285e-010	-1.09362e-010	-8.7263e-011	-6.99029e-011	-5.58198e-011	-4.49376e-011	-3.57143e-011	-2.7596e-011	-2.10425e-011	-1.54042e-011	-1.03402e-011	-6.19743e-012	-2.31889e-012	1.44202e-012	4.47371e-012	7.31229e-012	9.88587e-012	1.23352e-011	1.45184e-011	1.60402e-011	1.8226e-011	1.97496e-011	2.13439e-011	2.28024e-011	2.41311e-011	2.49929e-011	
FineR140	-1.42062e-010	-1.08556e-010	-8.62791e-011	-6.90975e-011	-5.54778e-011	-4.4325e-011	-3.46431e-011	-2.72545e-011	-2.04317e-011	-1.47938e-011	-9.80565e-012	-5.39336e-012	-1.70946e-012	2.24717e-012	5.27924e-012	7.92114e-012	1.04944e-011	1.29436e-011	1.51266e-011	1.68473e-011	1.86371e-011	2.03602e-011	2.18846e-011	2.34101e-011	2.47387e-011	2.58012e-011	
FineR150	-1.41718e-010	-1.08213e-010	-8.58524e-011	-6.89457e-011	-5.49511e-011	-4.39829e-011	-3.4572e-011	-2.66427e-011	-2.009e-011	-1.44522e-011	-9.38861e-012	-5.05189e-012	-1.09965e-012	2.58856e-012	5.62054e-012	8.53015e-012	1.11032e-011	1.32847e-011	1.54678e-011	1.76523e-011	1.91751e-011	2.11656e-011	2.22256e-011	2.37512e-011	2.50797e-011	2.63396e-011	
FineR160	-1.40908e-010	-1.07592e-010	-8.53181e-011	-6.81385e-011	-5.47929e-011	-4.31763e-011	-3.40361e-011	-2.65706e-011	-1.95538e-011	-1.41102e-011	-8.85188e-012	-4.24626e-012	-5.62484e-013	3.00246e-012	6.22941e-012	8.99702e-012	1.1641e-011	1.40901e-011	1.62731e-011	1.79938e-011	1.97834e-011	2.13067e-011	2.30314e-011	2.43592e-011	2.56183e-011	2.69474e-011	
FineR170	-1.40564e-010	-1.07058e-010	-8.50584e-011	-6.7877e-011	-5.40657e-011	-4.28336e-011	-3.34227e-011	-2.57642e-011	-1.92113e-011	-1.35735e-011	-8.50984e-012	-4.17301e-012	-2.93644e-013	3.46771e-012	6.30308e-012	9.40936e-012	1.22504e-011	1.44319e-011	1.63471e-011	1.85318e-011	2.00545e-011	2.18454e-011	2.35696e-011	2.48975e-011	2.59593e-011	2.7088e-011	
FineR180	-1.4003e-010	-1.06801e-010	-8.47021e-011	-6.73417e-011	-5.34501e-011	-4.22976e-011	-3.33457e-011	-2.54979e-011	-1.86746e-011	-1.29597e-011	-7.97274e-012	-3.83018e-012	3.16899e-013	3.80932e-012	6.84076e-012	9.94717e-012	1.2055e-011	1.4702e-011	1.66865e-011	1.86038e-011	2.08603e-011	2.23838e-011	2.39079e-011	2.49689e-011	2.65644e-011	2.78241e-011	
FineR190	-1.39941e-010	-1.06267e-010	-8.41672e-011	-6.69881e-011	-5.33706e-011	-4.22193e-011	-3.28093e-011	-2.48811e-011	-1.85988e-011	-1.2692e-011	-7.62905e-012	-3.09752e-012	5.86157e-013	4.07855e-012	7.37864e-012	1.00203e-011	1.25931e-011	1.50419e-011	1.69576e-011	1.89453e-011	2.08642e-011	2.24584e-011	2.39826e-011	2.5708e-011	2.70373e-011	2.80999e-011	
FineR200	-1.39519e-010	-1.06197e-010	-8.39182e-011	-6.67351e-011	-5.2738e-011	-4.19603e-011	-3.25481e-011	-2.46981e-011	-1.83342e-011	-1.24258e-011	-7.43713e-012	-2.82947e-012	1.31966e-012	4.61729e-012	7.91803e-012	1.04891e-011	1.31335e-011	1.52456e-011	1.72309e-011	1.94159e-011	2.09389e-011	2.29302e-011	2.44549e-011	2.57829e-011	2.68448e-011	2.8639e-011	
FineR210	-1.39263e-010	-1.05937e-010	-8.33829e-011	-6.62902e-011	-5.24742e-011	-4.12312e-011	-3.24706e-011	-2.46214e-011	-1.76028e-011	-1.21579e-011	-6.89809e-012	-2.55993e-012	1.39346e-012	4.88651e-012	8.18788e-012	1.07581e-011	1.3206e-011	1.60499e-011	1.79663e-011	1.97555e-011	2.14778e-011	2.30015e-011	2.4526e-011	2.60544e-011	2.75815e-011	2.89108e-011	
FineR220	-1.38728e-010	-1.05678e-010	-8.32998e-011	-6.59361e-011	-5.2122e-011	-4.11526e-011	-3.20112e-011	-2.41608e-011	-1.72569e-011	-1.16185e-011	-6.82326e-012	-2.21693e-012	1.46735e-012	5.15612e-012	8.45707e-012	1.10283e-011	1.36728e-011	1.61222e-011	1.80384e-011	2.00266e-011	2.1946e-011	2.347e-011	2.47975e-011	2.63229e-011	2.76524e-011	2.89816e-011	
FineR230	-1.38639e-010	-1.05127e-010	-8.28483e-011	-6.59367e-011	-5.20421e-011	-4.1074e-011	-3.16628e-011	-2.38137e-011	-1.74508e-011	-1.15431e-011	-6.55386e-012	-2.21641e-012	2.00524e-012	5.42549e-012	8.53031e-012	1.13678e-011	1.40129e-011	1.63911e-011	1.83064e-011	2.05624e-011	2.20851e-011	2.40056e-011	2.53329e-011	2.68581e-011	2.79857e-011	2.925e-011	
FineR240	-1.3853e-010	-1.04751e-010	-8.27529e-011	-6.55728e-011	-5.17628e-011	-4.08026e-011	-3.13918e-011	-2.34631e-011	-1.67165e-011	-1.10037e-011	-6.28395e-012	-1.87332e-012	2.00587e-012	5.57116e-012	8.60219e-012	1.19046e-011	1.40137e-011	1.64627e-011	1.86458e-011	2.05634e-011	2.2353e-011	2.38763e-011	2.54003e-011	2.69293e-011	2.82542e-011	2.95839e-011	
FineR250	-1.37975e-010	-1.04578e-010	-8.2205e-011	-6.54908e-011	-5.16828e-011	-4.05312e-011	-3.1121e-011	-2.34628e-011	-1.69104e-011	-1.10032e-011	-5.94e-012	-1.6035e-012	2.34829e-012	5.83992e-012	9.06831e-012	1.17093e-011	1.45504e-011	1.67318e-011	1.89148e-011	2.07033e-011	2.26218e-011	2.4345e-011	2.5672e-011	2.7197e-011	2.85262e-011	2.93875e-011	
MinCout:	-4.28599e-014	FineR:	110	FineC:	130

	FineC120	FineC121	FineC122	FineC123	FineC124	FineC125	FineC126	FineC127	FineC128	FineC129	FineC130	FineC131	FineC132	FineC133	FineC134	FineC135	FineC136	FineC137	FineC138	FineC139	FineC140	
FineR120	-2.92734e-012	-2.46351e-012	-2.07286e-012	-1.80444e-012	-1.60879e-012	-1.14523e-012	-7.53992e-013	-2.90145e-013	1.01119e-013	1.01338e-013	5.64987e-013	7.61048e-013	1.2249e-012	1.88477e-012	1.88477e-012	2.34858e-012	2.54478e-012	2.7407e-012	2.93702e-012	3.40089e-012	3.86471e-012	
FineR121	-2.65911e-012	-2.73197e-012	-2.00008e-012	-1.80444e-012	-1.60908e-012	-1.14523e-012	-4.85874e-013	-4.85874e-013	-9.4463e-014	3.69394e-013	5.65211e-013	1.02908e-012	1.4929e-012	1.68891e-012	1.88477e-012	2.08047e-012	2.54478e-012	3.0086e-012	3.20493e-012	3.66877e-012	3.86523e-012	
FineR122	-2.92759e-012	-2.65911e-012	-2.00008e-012	-1.53628e-012	-1.3409e-012	-1.14523e-012	-4.85874e-013	-4.85874e-013	1.7363e-013	5.65017e-013	6.3745e-013	1.29711e-012	1.22503e-012	1.68891e-012	2.34888e-012	2.34888e-012	2.81272e-012	2.93684e-012	3.20493e-012	3.66938e-012	3.86523e-012	
FineR123	-2.85468e-012	-2.19569e-012	-2.00008e-012	-1.80476e-012	-1.3409e-012	-8.77089e-013	-6.81579e-013	-2.21106e-014	4.41723e-013	1.7363e-013	8.33279e-013	1.29711e-012	1.29711e-012	1.95691e-012	2.42112e-012	2.34888e-012	2.81272e-012	3.009e-012	3.47285e-012	3.40073e-012	3.86523e-012	
FineR124	-2.85468e-012	-2.19569e-012	-2.00028e-012	-1.53655e-012	-1.07272e-012	-6.81751e-013	-4.13424e-013	-2.21106e-014	4.41723e-013	4.41723e-013	1.10135e-012	1.29711e-012	1.29711e-012	1.95691e-012	2.4207e-012	2.61686e-012	3.08066e-012	3.009e-012	3.47285e-012	3.66927e-012	4.13313e-012	
FineR125	-2.58641e-012	-1.92744e-012	-2.00028e-012	-1.73187e-012	-1.07272e-012	-6.08946e-013	-4.13424e-013	-2.17756e-013	1.73459e-013	4.41723e-013	1.10135e-012	1.10135e-012	1.76112e-012	1.68875e-012	2.22492e-012	2.61686e-012	2.8126e-012	3.08066e-012	3.74077e-012	3.74077e-012	3.86511e-012	
FineR126	-2.39127e-012	-1.92744e-012	-1.92744e-012	-1.26833e-012	-1.07287e-012	-6.81751e-013	-4.13424e-013	-4.13424e-013	2.46019e-013	9.05608e-013	1.17378e-012	1.29726e-012	1.76112e-012	1.76112e-012	2.42103e-012	2.42103e-012	3.08109e-012	3.27696e-012	3.27696e-012	3.9372e-012	4.20517e-012	
FineR127	-2.39145e-012	-2.12299e-012	-1.6592e-012	-1.53672e-012	-1.07292e-012	-6.09067e-013	-1.45268e-013	5.03397e-014	7.09892e-013	7.09892e-013	9.05608e-013	1.56534e-012	1.56534e-012	2.22522e-012	2.42094e-012	2.68905e-012	3.08109e-012	3.08109e-012	3.74129e-012	4.00929e-012	4.20513e-012	
FineR128	-2.31852e-012	-2.12299e-012	-1.46391e-012	-1.46391e-012	-8.04688e-013	-3.40875e-013	-1.45316e-013	5.03397e-014	7.09892e-013	7.09892e-013	1.17371e-012	1.36959e-012	1.83342e-012	2.22522e-012	2.49327e-012	2.88524e-012	3.34908e-012	3.34908e-012	4.00926e-012	4.00926e-012	4.40164e-012	
FineR129	-2.31852e-012	-1.92791e-012	-1.65947e-012	-1.00028e-012	-8.04799e-013	-8.04688e-013	-1.45316e-013	2.459e-013	5.14201e-013	1.17386e-012	1.36951e-012	1.36959e-012	2.02943e-012	2.02943e-012	2.49327e-012	3.15327e-012	3.15327e-012	3.54541e-012	3.54541e-012	4.00926e-012	4.20573e-012	
FineR130	-2.0502e-012	-1.85501e-012	-1.65947e-012	-1.19566e-012	-8.04799e-013	-3.40948e-013	1.22888e-013	5.03173e-014	5.14201e-013	9.05601e-013	1.17386e-012	1.63771e-012	2.10182e-012	2.29753e-012	2.68942e-012	2.95749e-012	3.15327e-012	3.34956e-012	3.81342e-012	4.47371e-012	4.47371e-012	
FineR131	-2.12348e-012	-1.85501e-012	-1.19586e-012	-1.00038e-012	-1.00028e-012	-3.40948e-013	-3.40948e-013	3.18533e-013	7.8238e-013	9.7816e-013	1.44202e-012	1.83361e-012	1.83367e-012	2.29753e-012	2.95749e-012	2.95749e-012	3.6176e-012	3.6176e-012	4.08142e-012	4.27784e-012	4.47371e-012	
FineR132	-2.05052e-012	-1.58668e-012	-1.19594e-012	-9.27553e-013	-5.36556e-013	-7.2707e-014	-7.2707e-014	5.86749e-013	7.8238e-013	9.7816e-013	1.44202e-012	1.90582e-012	2.1018e-012	2.76173e-012	2.49362e-012	2.95749e-012	3.15372e-012	3.6176e-012	4.082e-012	4.27785e-012	4.47371e-012	
FineR133	-2.05052e-012	-1.58668e-012	-1.3914e-012	-9.27553e-013	-4.63751e-013	-7.2707e-014	-7.2707e-014	5.86749e-013	7.8238e-013	1.24635e-012	1.71017e-012	1.63793e-012	2.1018e-012	2.56599e-012	2.76173e-012	3.4218e-012	3.4218e-012	3.6176e-012	4.27785e-012	4.27785e-012	4.74169e-012	
FineR134	-2.05052e-012	-1.58668e-012	-1.58668e-012	-9.27553e-013	-2.68278e-013	-2.68278e-013	-7.2707e-014	5.86749e-013	9.78101e-013	1.05056e-012	1.44198e-012	1.97828e-012	2.36993e-012	2.49358e-012	2.76173e-012	2.95747e-012	3.61759e-012	3.6176e-012	4.00981e-012	4.27785e-012	4.74169e-012	
FineR135	-2.05061e-012	-1.58675e-012	-1.31835e-012	-6.5925e-013	-1.95522e-013	-2.68278e-013	1.22828e-013	3.91142e-013	1.05071e-012	1.51454e-012	1.24635e-012	1.9061e-012	2.36993e-012	2.56599e-012	3.02983e-012	3.22603e-012	3.68988e-012	3.61812e-012	4.08202e-012	4.35002e-012	4.54587e-012	
FineR136	-1.78221e-012	-1.58693e-012	-1.12306e-012	-9.27603e-013	-4.63825e-013	0	1.95559e-013	3.91142e-013	1.05071e-012	1.24633e-012	1.71042e-012	2.17426e-012	2.17426e-012	2.83413e-012	3.02983e-012	3.22603e-012	3.68988e-012	3.68988e-012	4.35007e-012	4.35007e-012	4.74238e-012	
FineR137	-1.97761e-012	-1.51379e-012	-8.54724e-013	-6.59349e-013	-4.63825e-013	0	3.91118e-013	6.59395e-013	1.05071e-012	1.24633e-012	1.71042e-012	2.17426e-012	2.17426e-012	2.83413e-012	2.83413e-012	3.22603e-012	3.49409e-012	4.1543e-012	4.35007e-012	4.35007e-012	5.01041e-012	
FineR138	-1.97761e-012	-1.31855e-012	-1.31855e-012	-4.63851e-013	-1.9551e-013	-2.68315e-013	1.95559e-013	6.59395e-013	1.31894e-012	1.31894e-012	1.97862e-012	1.97862e-012	2.37028e-012	2.83413e-012	2.83413e-012	3.49414e-012	3.49414e-012	4.1543e-012	4.42229e-012	4.35007e-012	5.01041e-012	
FineR139	-1.70921e-012	-1.05017e-012	-1.05017e-012	-6.59349e-013	-1.9551e-013	0	4.63849e-013	9.27648e-013	1.12335e-012	1.51477e-012	1.78295e-012	1.97862e-012	2.63845e-012	2.83417e-012	3.10227e-012	3.56648e-012	3.69043e-012	4.1543e-012	4.61813e-012	4.8146e-012	5.27844e-012	
FineR140	-1.78248e-012	-1.31858e-012	-1.05017e-012	-3.90997e-013	-1.95498e-013	0	4.63849e-013	6.59409e-013	1.31896e-012	1.58716e-012	1.71042e-012	2.24683e-012	2.44243e-012	2.90654e-012	3.10227e-012	3.76226e-012	3.95855e-012	4.1543e-012	4.1543e-012	4.8146e-012	4.8146e-012	
MinCout:	0	FineR:	136	FineC:	125

