	CoarseC0	CoarseC10	CoarseC20	CoarseC30	CoarseC40	CoarseC50	CoarseC60	CoarseC70	CoarseC80	CoarseC90	CoarseC100	CoarseC110	CoarseC120	CoarseC130	CoarseC140	CoarseC150	CoarseC160	CoarseC170	CoarseC180	CoarseC190	CoarseC200	CoarseC210	CoarseC220	CoarseC230	CoarseC240	CoarseC250	
CoarseR0	-1.8391e-009	-1.82865e-009	-1.81405e-009	-1.79481e-009	-1.77279e-009	-1.74708e-009	-1.71886e-009	-1.68794e-009	-1.65494e-009	-1.61929e-009	-1.58107e-009	-1.53806e-009	-1.48542e-009	-1.43712e-009	-1.39111e-009	-1.34851e-009	-1.30881e-009	-1.27185e-009	-1.23681e-009	-1.20372e-009	-1.17232e-009	-1.14264e-009	-1.11517e-009	-1.08907e-009	-1.06444e-009	-1.04135e-009	
CoarseR10	-1.40368e-009	-1.38884e-009	-1.37126e-009	-1.35034e-009	-1.32696e-009	-1.30102e-009	-1.27216e-009	-1.24149e-009	-1.20856e-009	-1.17215e-009	-1.13066e-009	-1.0801e-009	-1.03327e-009	-9.9035e-010	-9.4959e-010	-9.11539e-010	-8.75931e-010	-8.42733e-010	-8.10839e-010	-7.81181e-010	-7.53117e-010	-7.26845e-010	-7.02296e-010	-6.795e-010	-6.57302e-010	-6.36724e-010	
CoarseR20	-1.14371e-009	-1.1269e-009	-1.10841e-009	-1.08654e-009	-1.06201e-009	-1.03496e-009	-1.00559e-009	-9.74306e-010	-9.39683e-010	-9.00058e-010	-8.50544e-010	-8.04423e-010	-7.61698e-010	-7.22454e-010	-6.8502e-010	-6.50113e-010	-6.16993e-010	-5.85812e-010	-5.56465e-010	-5.2928e-010	-5.03876e-010	-4.79938e-010	-4.57534e-010	-4.36536e-010	-4.16439e-010	-3.97919e-010	
CoarseR30	-9.70345e-010	-9.51848e-010	-9.31463e-010	-9.08662e-010	-8.83305e-010	-8.55272e-010	-8.24779e-010	-7.9185e-010	-7.54762e-010	-7.05785e-010	-6.59739e-010	-6.17045e-010	-5.76923e-010	-5.4022e-010	-5.05065e-010	-4.71471e-010	-4.40333e-010	-4.11472e-010	-3.8456e-010	-3.59155e-010	-3.35478e-010	-3.13237e-010	-2.92667e-010	-2.73142e-010	-2.54462e-010	-2.3688e-010	
CoarseR40	-8.46559e-010	-8.26372e-010	-8.05373e-010	-7.80854e-010	-7.54252e-010	-7.24906e-010	-6.93006e-010	-6.5806e-010	-6.12331e-010	-5.64857e-010	-5.21633e-010	-4.80868e-010	-4.42908e-010	-4.07641e-010	-3.73599e-010	-3.4157e-010	-3.12344e-010	-2.85456e-010	-2.59723e-010	-2.35766e-010	-2.13818e-010	-1.927e-010	-1.73222e-010	-1.55174e-010	-1.37389e-010	-1.21082e-010	
CoarseR50	-7.52956e-010	-7.31709e-010	-7.08867e-010	-6.83729e-010	-6.55292e-010	-6.24813e-010	-5.91151e-010	-5.50114e-010	-5.01423e-010	-4.56367e-010	-4.14703e-010	-3.76026e-010	-3.39133e-010	-3.04296e-010	-2.71792e-010	-2.41835e-010	-2.14135e-010	-1.88279e-010	-1.63761e-010	-1.41694e-010	-1.20312e-010	-1.00363e-010	-8.20813e-011	-6.45495e-011	-4.81733e-011	-3.25666e-011	
CoarseR60	-6.7973e-010	-6.56608e-010	-6.33119e-010	-6.06165e-010	-5.76988e-010	-5.44823e-010	-5.08829e-010	-4.60586e-010	-4.13815e-010	-3.70638e-010	-3.30273e-010	-2.92524e-010	-2.5593e-010	-2.22674e-010	-1.91848e-010	-1.62852e-010	-1.36104e-010	-1.11377e-010	-8.83002e-011	-6.65017e-011	-4.64317e-011	-2.79526e-011	-1.00275e-011	6.5246e-012	2.2487e-011	3.69319e-011	
CoarseR70	-6.20954e-010	-5.9673e-010	-5.7179e-010	-5.43962e-010	-5.13337e-010	-4.79305e-010	-4.37069e-010	-3.88084e-010	-3.42773e-010	-3.00078e-010	-2.6097e-010	-2.23355e-010	-1.88175e-010	-1.56353e-010	-1.26085e-010	-9.84414e-011	-7.26457e-011	-4.9102e-011	-2.69005e-011	-6.18212e-012	1.31604e-011	3.1479e-011	4.84997e-011	6.44301e-011	7.95253e-011	9.3527e-011	
CoarseR80	-5.72543e-010	-5.47228e-010	-5.20399e-010	-4.91423e-010	-4.59971e-010	-4.23869e-010	-3.74956e-010	-3.27228e-010	-2.8289e-010	-2.41537e-010	-2.02916e-010	-1.65393e-010	-1.31608e-010	-1.00653e-010	-7.15106e-011	-4.45844e-011	-1.96343e-011	3.06014e-012	2.46822e-011	4.45066e-011	6.32548e-011	8.11685e-011	9.72845e-011	1.12601e-010	1.2699e-010	1.40091e-010	
CoarseR90	-5.30712e-010	-5.04543e-010	-4.76818e-010	-4.46649e-010	-4.12907e-010	-3.73041e-010	-3.21791e-010	-2.74701e-010	-2.3159e-010	-1.90932e-010	-1.51964e-010	-1.15631e-010	-8.28641e-011	-5.25417e-011	-2.4298e-011	1.61545e-012	2.57311e-011	4.77934e-011	6.87697e-011	8.84726e-011	1.06312e-010	1.23374e-010	1.39078e-010	1.53954e-010	1.6772e-010	1.80623e-010	
CoarseR100	-4.947e-010	-4.66708e-010	-4.3842e-010	-4.06831e-010	-3.71702e-010	-3.25771e-010	-2.75334e-010	-2.2961e-010	-1.86724e-010	-1.45508e-010	-1.07751e-010	-7.22102e-011	-3.98848e-011	-1.08399e-011	1.69865e-011	4.20795e-011	6.58384e-011	8.72658e-011	1.07879e-010	1.26262e-010	1.43702e-010	1.60067e-010	1.75412e-010	1.89844e-010	2.03181e-010	2.1544e-010	
CoarseR110	-4.63943e-010	-4.34829e-010	-4.0507e-010	-3.72416e-010	-3.35832e-010	-2.84742e-010	-2.349e-010	-1.89541e-010	-1.4723e-010	-1.05948e-010	-6.88805e-011	-3.46937e-011	-3.15807e-012	2.60067e-011	5.27488e-011	7.74828e-011	1.00349e-010	1.21454e-010	1.41375e-010	1.59315e-010	1.76421e-010	1.92368e-010	2.07259e-010	2.20771e-010	2.34163e-010	2.45472e-010	
CoarseR120	-4.35956e-010	-4.06489e-010	-3.75748e-010	-3.415e-010	-3.01457e-010	-2.47972e-010	-1.98814e-010	-1.54061e-010	-1.1139e-010	-7.1157e-011	-3.45221e-011	-1.13563e-012	2.97865e-011	5.80629e-011	8.44615e-011	1.08838e-010	1.31341e-010	1.51791e-010	1.7138e-010	1.88853e-010	2.05505e-010	2.21038e-010	2.35464e-010	2.48583e-010	2.61287e-010	2.72352e-010	
CoarseR130	-4.11902e-010	-3.80728e-010	-3.48799e-010	-3.13316e-010	-2.67861e-010	-2.15094e-010	-1.66864e-010	-1.22147e-010	-7.93566e-011	-3.96271e-011	-3.58406e-012	2.92048e-011	5.97967e-011	8.72585e-011	1.1336e-010	1.36818e-010	1.58662e-010	1.79221e-010	1.98133e-010	2.15462e-010	2.31416e-010	2.46541e-010	2.6025e-010	2.73351e-010	2.85081e-010	2.96672e-010	
CoarseR140	-3.89897e-010	-3.57688e-010	-3.25251e-010	-2.87959e-010	-2.38191e-010	-1.85903e-010	-1.38016e-010	-9.30344e-011	-5.07687e-011	-1.14674e-011	2.3978e-011	5.61123e-011	8.61025e-011	1.13476e-010	1.38954e-010	1.62247e-010	1.83967e-010	2.03592e-010	2.22101e-010	2.39014e-010	2.54737e-010	2.69395e-010	2.82907e-010	2.95573e-010	3.07013e-010	3.17879e-010	
CoarseR150	-3.69924e-010	-3.36507e-010	-3.02942e-010	-2.64646e-010	-2.11111e-010	-1.58993e-010	-1.11543e-010	-6.61589e-011	-2.43234e-011	1.4211e-011	4.89945e-011	8.13007e-011	1.10945e-010	1.37177e-010	1.62493e-010	1.85665e-010	2.06732e-010	2.26166e-010	2.44484e-010	2.60684e-010	2.76261e-010	2.90666e-010	3.03961e-010	3.15869e-010	3.27067e-010	3.37128e-010	
CoarseR160	-3.52161e-010	-3.17866e-010	-2.82752e-010	-2.41818e-010	-1.86514e-010	-1.35031e-010	-8.76958e-011	-4.19484e-011	-4.32444e-013	3.71554e-011	7.17336e-011	1.03212e-010	1.32648e-010	1.59022e-010	1.83434e-010	2.06424e-010	2.27307e-010	2.4632e-010	2.64176e-010	2.80712e-010	2.95777e-010	3.09722e-010	3.22277e-010	3.33904e-010	3.44856e-010	3.54396e-010	
CoarseR170	-3.34899e-010	-2.99712e-010	-2.64138e-010	-2.18566e-010	-1.63748e-010	-1.12542e-010	-6.45115e-011	-1.94281e-011	2.14822e-011	5.92616e-011	9.30125e-011	1.24272e-010	1.53181e-010	1.79326e-010	2.03774e-010	2.2615e-010	2.46347e-010	2.6569e-010	2.82877e-010	2.98839e-010	3.13938e-010	3.27184e-010	3.39675e-010	3.51311e-010	3.61457e-010	3.70989e-010	
CoarseR180	-3.18996e-010	-2.83483e-010	-2.46355e-010	-1.97328e-010	-1.42074e-010	-9.11502e-011	-4.31981e-011	1.5589e-012	4.21309e-011	7.95401e-011	1.13141e-010	1.43874e-010	1.72294e-010	1.98035e-010	2.21867e-010	2.44302e-010	2.64288e-010	2.83139e-010	3.00328e-010	3.16149e-010	3.30497e-010	3.43672e-010	3.55914e-010	3.66765e-010	3.76645e-010	3.85855e-010	
CoarseR190	-3.04912e-010	-2.68224e-010	-2.30089e-010	-1.77425e-010	-1.2309e-010	-7.22887e-011	-2.37757e-011	2.09867e-011	6.14453e-011	9.81066e-011	1.31443e-010	1.62281e-010	1.8988e-010	2.15427e-010	2.39314e-010	2.61325e-010	2.81352e-010	2.99499e-010	3.16424e-010	3.31937e-010	3.46038e-010	3.59218e-010	3.70664e-010	3.81478e-010	3.91285e-010	3.99388e-010	
CoarseR200	-2.91226e-010	-2.53432e-010	-2.14399e-010	-1.59096e-010	-1.04854e-010	-5.43202e-011	-5.24611e-012	3.88787e-011	7.86316e-011	1.15314e-010	1.48061e-010	1.78505e-010	2.06383e-010	2.31837e-010	2.55518e-010	2.76766e-010	2.96604e-010	3.14547e-010	3.31228e-010	3.46753e-010	3.60292e-010	3.73213e-010	3.84877e-010	3.94931e-010	4.04394e-010	4.1246e-010	
CoarseR210	-2.78429e-010	-2.40192e-010	-1.99841e-010	-1.42343e-010	-8.80757e-011	-3.73859e-011	1.18345e-011	5.54841e-011	9.48425e-011	1.31496e-010	1.64122e-010	1.9436e-010	2.21822e-010	2.46849e-010	2.70352e-010	2.91626e-010	3.11226e-010	3.29085e-010	3.45056e-010	3.60585e-010	3.7386e-010	3.86457e-010	3.9759e-010	4.07786e-010	4.16723e-010	4.24428e-010	
CoarseR220	-2.67223e-010	-2.27802e-010	-1.85657e-010	-1.26407e-010	-7.24284e-011	-2.10286e-011	2.75019e-011	7.10646e-011	1.10388e-010	1.46558e-010	1.78778e-010	2.08866e-010	2.36227e-010	2.61171e-010	2.84222e-010	3.05258e-010	3.24878e-010	3.42513e-010	3.58483e-010	3.73508e-010	3.86767e-010	3.98989e-010	4.09864e-010	4.19704e-010	4.27986e-010	4.35345e-010	
CoarseR230	-2.55497e-010	-2.15399e-010	-1.70624e-010	-1.11621e-010	-5.7748e-011	-5.80915e-012	4.25138e-011	8.58563e-011	1.24897e-010	1.60193e-010	1.93028e-010	2.22623e-010	2.49819e-010	2.74435e-010	2.97387e-010	3.18327e-010	3.37691e-010	3.55086e-010	3.71179e-010	3.85124e-010	3.98345e-010	4.10636e-010	4.21378e-010	4.30916e-010	4.3858e-010	4.45853e-010	
CoarseR240	-2.45279e-010	-2.03894e-010	-1.56583e-010	-9.76805e-011	-4.34636e-011	8.48162e-012	5.63035e-011	9.963e-011	1.38158e-010	1.73767e-010	2.05962e-010	2.35599e-010	2.62554e-010	2.87192e-010	3.10015e-010	3.30617e-010	3.49751e-010	3.67112e-010	3.83031e-010	3.96844e-010	4.10302e-010	4.21714e-010	4.3192e-010	4.40816e-010	4.48655e-010	4.55533e-010	
CoarseR250	-2.35387e-010	-1.93133e-010	-1.43308e-010	-8.45776e-011	-3.05935e-011	2.16955e-011	6.96203e-011	1.12428e-010	1.51e-010	1.86396e-010	2.18356e-010	2.47959e-010	2.74885e-010	2.99322e-010	3.21663e-010	3.4249e-010	3.61124e-010	3.78233e-010	3.94048e-010	4.08173e-010	4.20743e-010	4.32111e-010	4.4227e-010	4.5077e-010	4.58547e-010	4.64487e-010	
MinCout:	-4.32444e-013	CoarseR:	160	CoarseC:	80

	CoarseC140	CoarseC141	CoarseC142	CoarseC143	CoarseC144	CoarseC145	CoarseC146	CoarseC147	CoarseC148	CoarseC149	CoarseC150	CoarseC151	CoarseC152	CoarseC153	CoarseC154	CoarseC155	CoarseC156	CoarseC157	CoarseC158	CoarseC159	CoarseC160	
CoarseR80	-7.17813e-011	-6.87126e-011	-6.61703e-011	-6.32212e-011	-6.0676e-011	-5.80629e-011	-5.49881e-011	-5.23714e-011	-5.00121e-011	-4.78548e-011	-4.45844e-011	-4.19626e-011	-3.95989e-011	-3.71696e-011	-3.43531e-011	-3.24454e-011	-2.9626e-011	-2.71934e-011	-2.48302e-011	-2.24592e-011	-2.00245e-011	
CoarseR81	-6.65765e-011	-6.39667e-011	-6.13437e-011	-5.82832e-011	-5.59281e-011	-5.30438e-011	-5.0237e-011	-4.7621e-011	-4.50021e-011	-4.26414e-011	-3.98288e-011	-3.74003e-011	-3.48417e-011	-3.24115e-011	-2.95934e-011	-2.74291e-011	-2.48643e-011	-2.24309e-011	-1.98049e-011	-1.7439e-011	-1.50667e-011	
CoarseR82	-6.15316e-011	-5.87306e-011	-5.61183e-011	-5.34264e-011	-5.08801e-011	-4.80734e-011	-4.56483e-011	-4.28387e-011	-4.02208e-011	-3.78577e-011	-3.49698e-011	-3.21547e-011	-2.97905e-011	-2.74318e-011	-2.50003e-011	-2.21794e-011	-2.00033e-011	-1.76438e-011	-1.50116e-011	-1.264e-011	-1.00784e-011	
CoarseR83	-5.67855e-011	-5.41043e-011	-5.15606e-011	-4.89466e-011	-4.58713e-011	-4.30633e-011	-4.08967e-011	-3.80858e-011	-3.56585e-011	-3.30389e-011	-3.02148e-011	-2.78578e-011	-2.52351e-011	-2.26736e-011	-2.02414e-011	-1.80755e-011	-1.5252e-011	-1.28177e-011	-1.0515e-011	-8.07889e-012	-5.50679e-012	
CoarseR84	-5.22109e-011	-4.91382e-011	-4.65241e-011	-4.39091e-011	-4.15532e-011	-3.84754e-011	-3.56644e-011	-3.32373e-011	-3.0877e-011	-2.82542e-011	-2.54375e-011	-2.28146e-011	-2.04498e-011	-1.80885e-011	-1.5459e-011	-1.30253e-011	-1.09224e-011	-8.29397e-012	-5.65976e-012	-3.74679e-012	-9.16197e-013	
CoarseR85	-4.72172e-011	-4.46027e-011	-4.15273e-011	-3.93639e-011	-3.67467e-011	-3.3936e-011	-3.10479e-011	-2.84279e-011	-2.65273e-011	-2.37108e-011	-2.08208e-011	-1.82684e-011	-1.56333e-011	-1.34672e-011	-1.08405e-011	-8.66576e-012	-6.10546e-012	-3.6698e-012	-1.09943e-012	1.07248e-012	3.90452e-012	
CoarseR86	-4.23849e-011	-4.00315e-011	-3.69549e-011	-3.45298e-011	-3.1719e-011	-2.90996e-011	-2.67398e-011	-2.38573e-011	-2.14946e-011	-1.88714e-011	-1.60518e-011	-1.38805e-011	-1.1058e-011	-8.62461e-012	-6.05932e-012	-3.89011e-012	-1.26024e-012	9.1062e-013	3.48185e-012	5.65487e-012	8.22937e-012	
CoarseR87	-3.77866e-011	-3.51701e-011	-3.23551e-011	-3.01972e-011	-2.7117e-011	-2.44966e-011	-2.18745e-011	-1.95139e-011	-1.68906e-011	-1.42648e-011	-1.16396e-011	-9.01125e-012	-6.44837e-012	-4.28018e-012	-1.65106e-012	4.56456e-013	3.08773e-012	5.52496e-012	7.63711e-012	1.02711e-011	1.28464e-011	
CoarseR88	-3.29678e-011	-3.03501e-011	-2.79948e-011	-2.53756e-011	-2.24876e-011	-1.96724e-011	-1.70492e-011	-1.46881e-011	-1.25241e-011	-9.70295e-012	-6.87585e-012	-4.7085e-012	-2.07992e-012	5.52483e-013	2.92143e-012	5.09254e-012	7.92373e-012	1.00969e-011	1.24748e-011	1.48455e-011	1.72861e-011	
CoarseR89	-2.86474e-011	-2.57608e-011	-2.3406e-011	-2.07852e-011	-1.81636e-011	-1.55409e-011	-1.27226e-011	-1.05553e-011	-7.92971e-012	-5.30172e-012	-2.74236e-012	-1.11534e-013	2.51805e-012	4.88603e-012	7.2555e-012	9.42767e-012	1.20649e-011	1.44376e-011	1.66127e-011	1.9188e-011	2.16294e-011	
CoarseR90	-2.41043e-011	-2.1678e-011	-1.90546e-011	-1.65066e-011	-1.38109e-011	-1.09928e-011	-8.36807e-012	-6.0055e-012	-3.83952e-012	-1.21183e-012	1.6158e-012	3.98218e-012	6.61312e-012	8.78635e-012	1.16176e-011	1.37908e-011	1.64253e-011	1.85379e-011	2.09784e-011	2.30895e-011	2.59294e-011	
CoarseR91	-1.99257e-011	-1.73059e-011	-1.44166e-011	-1.15999e-011	-9.24081e-012	-6.61557e-012	-3.98933e-012	-1.3623e-012	7.36365e-013	3.17034e-012	5.99759e-012	8.6288e-012	1.12632e-011	1.33677e-011	1.6005e-011	1.82445e-011	2.05523e-011	2.29929e-011	2.53665e-011	2.77468e-011	2.98602e-011	
CoarseR92	-1.55259e-011	-1.29776e-011	-1.00872e-011	-7.46356e-012	-5.10397e-012	-2.47757e-012	1.49956e-013	2.97451e-012	5.14325e-012	7.77366e-012	1.014e-011	1.25091e-011	1.51449e-011	1.77795e-011	2.04148e-011	2.23258e-011	2.49665e-011	2.71439e-011	2.92554e-011	3.19e-011	3.45411e-011	
CoarseR93	-1.14404e-011	-8.81676e-012	-5.99824e-012	-3.83446e-012	-7.46607e-013	1.8811e-012	4.50993e-012	6.94369e-012	9.04278e-012	1.18717e-011	1.42389e-011	1.66762e-011	1.95094e-011	2.16838e-011	2.42551e-011	2.66959e-011	2.86086e-011	3.1248e-011	3.36289e-011	3.60061e-011	3.81876e-011	
CoarseR94	-7.06297e-012	-4.43807e-012	-1.61789e-012	8.13463e-013	3.17399e-012	5.80261e-012	8.43253e-012	1.12601e-011	1.34291e-011	1.58653e-011	1.88938e-011	2.08011e-011	2.36363e-011	2.60763e-011	2.84484e-011	3.08265e-011	3.29374e-011	3.53809e-011	3.75615e-011	4.02086e-011	4.23244e-011	
CoarseR95	-3.38965e-012	-5.69787e-013	2.32332e-012	4.88029e-012	7.31099e-012	1.0137e-011	1.25028e-011	1.51355e-011	1.75015e-011	1.99388e-011	2.27723e-011	2.49444e-011	2.73173e-011	2.99578e-011	3.20667e-011	3.45092e-011	3.71501e-011	3.92663e-011	4.14481e-011	4.4092e-011	4.62132e-011	
CoarseR96	9.62751e-013	3.58998e-012	6.41311e-012	8.84603e-012	1.14035e-011	1.40352e-011	1.66677e-011	1.93013e-011	2.14705e-011	2.38412e-011	2.6673e-011	2.88487e-011	3.1687e-011	3.38649e-011	3.63073e-011	3.86193e-011	4.10637e-011	4.31774e-011	4.56233e-011	4.801e-011	5.03902e-011	
CoarseR97	5.07191e-012	7.5039e-012	1.03286e-011	1.27623e-011	1.559e-011	1.79535e-011	2.07846e-011	2.32221e-011	2.56601e-011	2.80332e-011	3.07997e-011	3.30412e-011	3.58809e-011	3.77918e-011	4.04336e-011	4.23467e-011	4.51924e-011	4.73755e-011	4.92922e-011	5.21423e-011	5.40615e-011	
CoarseR98	9.00778e-012	1.16327e-011	1.41935e-011	1.66284e-011	1.95264e-011	2.21594e-011	2.45245e-011	2.70938e-011	2.9533e-011	3.16376e-011	3.45418e-011	3.69182e-011	3.95593e-011	4.17338e-011	4.43148e-011	4.62285e-011	4.88769e-011	5.10612e-011	5.37084e-011	5.56267e-011	5.84798e-011	
CoarseR99	1.29632e-011	1.5518e-011	1.81501e-011	2.05854e-011	2.31454e-011	2.57806e-011	2.86146e-011	3.10537e-011	3.32292e-011	3.57977e-011	3.84381e-011	4.08805e-011	4.31905e-011	4.56349e-011	4.7747e-011	5.03952e-011	5.25796e-011	5.46958e-011	5.71445e-011	5.97357e-011	6.19179e-011	
CoarseR100	1.65936e-011	1.91558e-011	2.17826e-011	2.41507e-011	2.67863e-011	2.96206e-011	3.20599e-011	3.46264e-011	3.70676e-011	3.92456e-011	4.20875e-011	4.44601e-011	4.68426e-011	4.94879e-011	5.16037e-011	5.37888e-011	5.61778e-011	5.87688e-011	6.09504e-011	6.31401e-011	6.5524e-011	
MinCout:	-1.11534e-013	CoarseR:	89	CoarseC:	151

	FineC0	FineC10	FineC20	FineC30	FineC40	FineC50	FineC60	FineC70	FineC80	FineC90	FineC100	FineC110	FineC120	FineC130	FineC140	FineC150	FineC160	FineC170	FineC180	FineC190	FineC200	FineC210	FineC220	FineC230	FineC240	FineC250	
FineR0	-2.11713e-010	-1.79e-010	-1.56733e-010	-1.3955e-010	-1.25817e-010	-1.14913e-010	-1.05479e-010	-9.76664e-011	-9.08905e-011	-8.50129e-011	-8.00604e-011	-7.54807e-011	-7.15473e-011	-6.80708e-011	-6.49875e-011	-6.21714e-011	-5.93528e-011	-5.69172e-011	-5.45551e-011	-5.31012e-011	-5.13168e-011	-4.96052e-011	-4.78327e-011	-4.65072e-011	-4.49982e-011	-4.36751e-011	
FineR10	-1.79447e-010	-1.47022e-010	-1.25026e-010	-1.08835e-010	-9.48273e-011	-8.39149e-011	-7.50048e-011	-6.68499e-011	-6.04071e-011	-5.4715e-011	-4.96758e-011	-4.51688e-011	-4.16938e-011	-3.77614e-011	-3.47406e-011	-3.19107e-011	-2.97419e-011	-2.7109e-011	-2.4937e-011	-2.29579e-011	-2.14411e-011	-1.97265e-011	-1.79486e-011	-1.68906e-011	-1.53677e-011	-1.42473e-011	
FineR20	-1.65258e-010	-1.33185e-010	-1.11735e-010	-9.4814e-011	-8.13377e-011	-7.06057e-011	-6.14297e-011	-5.38802e-011	-4.70893e-011	-4.12116e-011	-3.64325e-011	-3.21139e-011	-2.83706e-011	-2.44349e-011	-2.16079e-011	-1.85887e-011	-1.59561e-011	-1.37842e-011	-1.16108e-011	-9.63124e-012	-8.11405e-012	-6.3983e-012	-4.87941e-012	-3.82123e-012	-2.23552e-012	-1.17613e-012	
FineR30	-1.57195e-010	-1.25202e-010	-1.03478e-010	-8.68208e-011	-7.34479e-011	-6.28011e-011	-5.34297e-011	-4.57253e-011	-3.91984e-011	-3.35839e-011	-2.88089e-011	-2.4222e-011	-2.0552e-011	-1.68089e-011	-1.37875e-011	-1.09616e-011	-8.52464e-012	-6.22336e-012	-4.24467e-012	-2.26679e-012	-5.51685e-013	1.22899e-012	2.75039e-012	4.27005e-012	5.32893e-012	6.6507e-012	
FineR40	-1.51569e-010	-1.20036e-010	-9.84816e-011	-8.18298e-011	-6.84568e-011	-5.78098e-011	-4.84347e-011	-4.09993e-011	-3.42816e-011	-2.85921e-011	-2.40816e-011	-1.92295e-011	-1.55594e-011	-1.1885e-011	-8.79443e-012	-6.23178e-012	-3.59921e-012	-1.22953e-012	5.51651e-013	2.72703e-012	4.44239e-012	6.15915e-012	7.48196e-012	8.99967e-012	1.03236e-011	1.1646e-011	
FineR50	-1.48261e-010	-1.16271e-010	-9.47295e-011	-7.80761e-011	-6.47781e-011	-5.43143e-011	-4.51338e-011	-3.70476e-011	-3.0519e-011	-2.50969e-011	-2.01262e-011	-1.57332e-011	-1.17961e-011	-8.58303e-012	-5.29533e-012	-2.46825e-012	-2.96962e-013	2.33872e-012	4.24775e-012	6.02963e-012	7.74513e-012	9.46203e-012	1.09811e-011	1.25679e-011	1.38234e-011	1.51477e-011	
FineR60	-1.45426e-010	-1.13623e-010	-9.21643e-011	-7.55082e-011	-6.2208e-011	-5.13972e-011	-4.22911e-011	-3.46618e-011	-2.81363e-011	-2.22516e-011	-1.72078e-011	-1.30814e-011	-9.21577e-012	-5.73576e-012	-2.64453e-012	1.13877e-013	2.55139e-012	4.72453e-012	6.89916e-012	8.87894e-012	1.05948e-011	1.2113e-011	1.3632e-011	1.51536e-011	1.64773e-011	1.73367e-011	
FineR70	-1.4347e-010	-1.11385e-010	-8.98312e-011	-7.34461e-011	-6.00693e-011	-4.94132e-011	-4.02313e-011	-3.2869e-011	-2.63403e-011	-2.03826e-011	-1.56083e-011	-1.10923e-011	-7.15472e-012	-4.1364e-012	-6.53929e-013	1.97826e-012	4.34671e-012	6.7855e-012	8.69489e-012	1.06748e-011	1.23886e-011	1.4174e-011	1.54281e-011	1.70152e-011	1.82708e-011	1.93301e-011	
FineR80	-1.4174e-010	-1.0983e-010	-8.83725e-011	-7.17169e-011	-5.84173e-011	-4.7876e-011	-3.87693e-011	-3.13328e-011	-2.48044e-011	-1.8728e-011	-1.38783e-011	-9.55696e-012	-5.88597e-012	-2.4061e-012	8.81031e-013	3.24715e-012	6.07736e-012	8.25082e-012	1.04258e-011	1.24057e-011	1.41218e-011	1.56401e-011	1.72269e-011	1.84817e-011	1.9805e-011	2.11287e-011	
FineR90	-1.4026e-010	-1.08451e-010	-8.68979e-011	-7.07849e-011	-5.74072e-011	-4.64868e-011	-3.74918e-011	-2.96732e-011	-2.34118e-011	-1.74532e-011	-1.29429e-011	-8.35471e-012	-4.41774e-012	-9.38178e-013	2.08319e-012	4.71466e-012	7.54481e-012	9.45291e-012	1.16279e-011	1.33427e-011	1.53899e-011	1.7107e-011	1.86259e-011	1.96838e-011	2.12717e-011	2.23308e-011	
FineR100	-1.39306e-010	-1.07329e-010	-8.60443e-011	-6.95693e-011	-5.6463e-011	-4.56208e-011	-3.61685e-011	-2.8732e-011	-2.24712e-011	-1.63189e-011	-1.15422e-011	-7.41599e-012	-3.47914e-012	1.95562e-013	3.21675e-012	6.04492e-012	8.21674e-012	1.06553e-011	1.2763e-011	1.45445e-011	1.62605e-011	1.77786e-011	1.92974e-011	2.08848e-011	2.19432e-011	2.34639e-011	
FineR110	-1.38182e-010	-1.06461e-010	-8.49041e-011	-6.87106e-011	-5.53259e-011	-4.46765e-011	-3.53008e-011	-2.7596e-011	-2.13355e-011	-1.59119e-011	-1.06751e-011	-6.54723e-012	-2.61034e-012	1.06458e-012	3.89001e-012	6.71792e-012	9.35121e-012	1.1457e-011	1.36992e-011	1.54138e-011	1.71299e-011	1.91125e-011	2.04319e-011	2.17542e-011	2.32778e-011	2.41366e-011	
FineR120	-1.37293e-010	-1.05318e-010	-8.40356e-011	-6.75616e-011	-5.44563e-011	-4.3801e-011	-3.46195e-011	-2.69945e-011	-2.04659e-011	-1.47752e-011	-9.61056e-012	-5.41102e-012	-1.74055e-012	1.93429e-012	5.02571e-012	7.39104e-012	1.02213e-011	1.23946e-011	1.43038e-011	1.62841e-011	1.80002e-011	1.9783e-011	2.13017e-011	2.26246e-011	2.38797e-011	2.50065e-011	
FineR130	-1.36973e-010	-1.04706e-010	-8.34251e-011	-6.69525e-011	-5.41183e-011	-4.29308e-011	-3.40176e-011	-2.61204e-011	-1.95928e-011	-1.417e-011	-9.20049e-012	-4.80647e-012	-1.13628e-012	2.34307e-012	5.36384e-012	8.45746e-012	1.08247e-011	1.31957e-011	1.49759e-011	1.68871e-011	1.88678e-011	2.01211e-011	2.19051e-011	2.32272e-011	2.42855e-011	2.56088e-011	
FineR140	-1.35894e-010	-1.04366e-010	-8.28142e-011	-6.64321e-011	-5.33253e-011	-4.25919e-011	-3.34105e-011	-2.57818e-011	-1.92543e-011	-1.3372e-011	-8.59511e-012	-4.27362e-012	-3.36533e-013	3.14281e-012	6.1645e-012	8.79549e-012	1.11644e-011	1.37995e-011	1.59744e-011	1.74906e-011	1.94712e-011	2.09889e-011	2.24426e-011	2.40303e-011	2.50888e-011	2.61479e-011	
FineR150	-1.35385e-010	-1.04026e-010	-8.24742e-011	-6.58213e-011	-5.24461e-011	-4.17911e-011	-3.28783e-011	-2.52529e-011	-1.84565e-011	-1.30332e-011	-7.79486e-012	-3.66859e-012	2.0094e-015	3.48123e-012	6.76861e-012	9.32994e-012	1.19643e-011	1.41378e-011	1.63127e-011	1.80275e-011	2.00063e-011	2.13271e-011	2.33108e-011	2.43685e-011	2.58886e-011	2.70155e-011	
FineR160	-1.35043e-010	-1.03223e-010	-8.19432e-011	-6.54813e-011	-5.21843e-011	-4.17207e-011	-3.22704e-011	-2.4452e-011	-1.81909e-011	-1.24996e-011	-7.45584e-012	-3.32871e-012	8.02436e-013	3.82001e-012	7.30332e-012	9.66862e-012	1.2303e-011	1.46729e-011	1.66513e-011	1.88277e-011	2.03448e-011	2.18626e-011	2.35809e-011	2.51686e-011	2.6227e-011	2.72861e-011	
FineR170	-1.34682e-010	-1.02882e-010	-8.13302e-011	-6.49496e-011	-5.18442e-011	-4.09191e-011	-3.20062e-011	-2.43769e-011	-1.75811e-011	-1.19662e-011	-6.92223e-012	-2.79496e-012	8.75194e-013	4.62065e-012	7.44514e-012	1.02029e-011	1.26399e-011	1.50109e-011	1.69875e-011	1.89668e-011	2.06826e-011	2.23974e-011	2.41842e-011	2.54392e-011	2.6762e-011	2.80865e-011	
FineR180	-1.34152e-010	-1.02351e-010	-8.10712e-011	-6.44177e-011	-5.14964e-011	-4.0579e-011	-3.14732e-011	-2.37692e-011	-1.72419e-011	-1.1625e-011	-6.65508e-012	-2.45624e-012	1.48068e-012	5.1549e-012	7.71387e-012	1.08075e-011	1.29091e-011	1.58116e-011	1.75222e-011	1.92368e-011	2.12152e-011	2.27364e-011	2.42549e-011	2.55769e-011	2.7101e-011	2.81569e-011	
FineR190	-1.33621e-010	-1.01994e-010	-8.05396e-011	-6.40676e-011	-5.07794e-011	-4.00462e-011	-3.09401e-011	-2.35041e-011	-1.69757e-011	-1.13582e-011	-6.31455e-012	-2.18843e-012	1.74805e-012	5.42356e-012	8.24841e-012	1.10768e-011	1.37102e-011	1.58835e-011	1.79907e-011	1.97718e-011	2.14879e-011	2.32066e-011	2.45284e-011	2.60479e-011	2.73721e-011	2.8632e-011	
FineR200	-1.33662e-010	-1.01676e-010	-8.03847e-011	-6.37222e-011	-5.06093e-011	-4.014e-011	-3.07597e-011	-2.31295e-011	-1.63287e-011	-1.09022e-011	-5.92875e-012	-1.72698e-012	2.14091e-012	5.62264e-012	8.7161e-012	1.15462e-011	1.36492e-011	1.60894e-011	1.82656e-011	1.99814e-011	2.19612e-011	2.34799e-011	2.50032e-011	2.65235e-011	2.75825e-011	2.89079e-011	
FineR210	-1.33257e-010	-1.01144e-010	-7.98526e-011	-6.36519e-011	-5.00763e-011	-3.96066e-011	-3.0495e-011	-2.27857e-011	-1.62542e-011	-1.06357e-011	-5.85543e-012	-1.26427e-012	2.67613e-012	5.96163e-012	8.9839e-012	1.18139e-011	1.41822e-011	1.63569e-011	1.87316e-011	2.02488e-011	2.20315e-011	2.37496e-011	2.5535e-011	2.65932e-011	2.79166e-011	2.94394e-011	
FineR220	-1.32707e-010	-1.00886e-010	-7.95922e-011	-6.33812e-011	-4.99981e-011	-3.915e-011	-3.04189e-011	-2.25172e-011	-1.59881e-011	-1.03671e-011	-5.32016e-012	-9.95986e-013	2.67708e-012	6.22965e-012	9.25231e-012	1.18854e-011	1.44511e-011	1.6626e-011	1.88023e-011	2.07832e-011	2.23011e-011	2.42855e-011	2.5805e-011	2.68633e-011	2.81837e-011	2.95089e-011	
FineR230	-1.32709e-010	-1.00788e-010	-7.93208e-011	-6.28392e-011	-4.97278e-011	-3.88035e-011	-3.00741e-011	-2.22516e-011	-1.57191e-011	-1.02931e-011	-5.24666e-012	-9.22973e-013	3.01588e-012	6.49664e-012	9.58934e-012	1.24188e-011	1.47865e-011	1.69607e-011	1.91364e-011	2.11166e-011	2.2634e-011	2.43518e-011	2.58709e-011	2.74592e-011	2.87153e-011	2.95738e-011	
FineR240	-1.32327e-010	-1.00515e-010	-7.92278e-011	-6.25682e-011	-4.93722e-011	-3.89076e-011	-2.95313e-011	-2.19046e-011	-1.55663e-011	-9.95062e-012	-5.17257e-012	-7.78053e-013	3.35501e-012	6.83466e-012	9.65959e-012	1.24883e-011	1.53196e-011	1.74935e-011	1.92041e-011	2.11852e-011	2.29001e-011	2.46841e-011	2.62028e-011	2.72604e-011	2.85831e-011	3.01053e-011	
FineR250	-1.31963e-010	-1.00242e-010	-7.89558e-011	-6.26705e-011	-4.9372e-011	-3.83684e-011	-2.94555e-011	-2.18261e-011	-1.55655e-011	-9.60735e-012	-4.90491e-012	-5.10668e-013	3.42698e-012	6.64004e-012	9.92766e-012	1.30216e-011	1.49268e-011	1.74949e-011	1.92751e-011	2.14515e-011	2.3233e-011	2.49502e-011	2.62043e-011	2.77922e-011	2.90478e-011	3.0371e-011	
MinCout:	2.0094e-015	FineR:	150	FineC:	120

	FineC120	FineC121	FineC122	FineC123	FineC124	FineC125	FineC126	FineC127	FineC128	FineC129	FineC130	FineC131	FineC132	FineC133	FineC134	FineC135	FineC136	FineC137	FineC138	FineC139	FineC140	
FineR90	-4.68378e-012	-4.0273e-012	-3.832e-012	-3.56572e-012	-3.17505e-012	-2.97968e-012	-2.51826e-012	-2.05667e-012	-1.39973e-012	-1.66559e-012	-1.00848e-012	-5.46887e-013	-5.46887e-013	1.10376e-013	1.10376e-013	7.67781e-013	7.67781e-013	1.42533e-012	1.1596e-012	1.62121e-012	2.08319e-012	
FineR91	-4.41774e-012	-4.02759e-012	-3.76129e-012	-3.1047e-012	-3.17534e-012	-2.71393e-012	-2.25233e-012	-2.05703e-012	-1.39996e-012	-9.38369e-013	-1.20425e-012	-5.47027e-013	-8.54107e-014	-8.54107e-014	3.76155e-013	5.7196e-013	1.22947e-012	1.49538e-012	1.62139e-012	2.08302e-012	2.08302e-012	
FineR92	-4.41844e-012	-3.95683e-012	-3.56657e-012	-3.30028e-012	-2.90958e-012	-2.44797e-012	-2.25256e-012	-1.79109e-012	-1.13407e-012	-1.13407e-012	-9.38369e-013	-5.47257e-013	-2.81174e-013	3.76162e-013	3.76162e-013	8.37751e-013	7.67839e-013	1.22947e-012	1.88713e-012	1.88713e-012	2.34872e-012	
FineR93	-4.15236e-012	-3.95707e-012	-3.49584e-012	-3.03425e-012	-2.83871e-012	-2.64358e-012	-1.98674e-012	-1.52515e-012	-1.25908e-012	-8.6816e-013	-8.6816e-013	-4.76915e-013	1.80387e-013	1.80387e-013	6.4199e-013	8.37832e-013	1.03364e-012	1.69126e-012	1.69126e-012	2.15287e-012	2.34903e-012	
FineR94	-4.15258e-012	-3.69137e-012	-3.22977e-012	-3.03474e-012	-2.83917e-012	-2.18255e-012	-2.18237e-012	-1.72076e-012	-1.06381e-012	-1.06381e-012	-6.72633e-013	-4.06573e-013	-1.53649e-014	4.46252e-013	6.42045e-013	1.10367e-012	1.56554e-012	1.49542e-012	1.76134e-012	2.15315e-012	2.34933e-012	
FineR95	-3.88688e-012	-3.42527e-012	-3.42527e-012	-2.76867e-012	-2.11192e-012	-2.37797e-012	-1.91635e-012	-1.25943e-012	-1.064e-012	-8.68328e-013	-8.68328e-013	-2.11094e-013	2.50536e-013	4.46282e-013	9.07921e-013	1.36977e-012	1.56545e-012	1.56554e-012	2.2232e-012	2.2232e-012	2.61513e-012	
FineR96	-3.88707e-012	-3.42581e-012	-3.23029e-012	-2.83984e-012	-2.57355e-012	-2.11192e-012	-1.6505e-012	-1.45503e-012	-7.98e-013	-7.97889e-013	-4.06801e-013	-1.40729e-013	2.50541e-013	7.12194e-013	9.78164e-013	1.1038e-012	1.36977e-012	1.76146e-012	2.22312e-012	2.48898e-012	2.88093e-012	
FineR97	-3.81619e-012	-3.15966e-012	-2.96417e-012	-2.96417e-012	-2.30746e-012	-2.04129e-012	-1.65061e-012	-9.93612e-013	-7.98e-013	-7.98e-013	-3.36388e-013	1.25208e-013	5.1649e-013	7.82485e-013	1.17395e-012	1.36969e-012	1.63562e-012	2.02732e-012	2.29321e-012	2.48894e-012	2.68515e-012	
FineR98	-3.81619e-012	-3.62131e-012	-3.15966e-012	-2.50298e-012	-2.23678e-012	-1.84616e-012	-1.58e-012	-1.1892e-012	-9.93612e-013	-3.36473e-013	-3.36473e-013	1.25149e-013	5.8683e-013	7.8244e-013	9.78291e-013	1.4399e-012	1.63557e-012	2.09747e-012	2.29318e-012	2.48933e-012	2.6851e-012	
FineR99	-3.81678e-012	-3.35512e-012	-2.89386e-012	-2.69848e-012	-2.04169e-012	-1.58006e-012	-1.11862e-012	-1.1892e-012	-5.32096e-013	-2.66011e-013	1.25151e-013	3.91197e-013	3.20809e-013	9.78233e-013	9.78233e-013	1.6358e-012	1.90174e-012	2.09745e-012	2.55941e-012	2.48929e-012	2.95138e-012	
FineR100	-3.55056e-012	-3.28427e-012	-2.89395e-012	-2.43232e-012	-1.97099e-012	-2.04169e-012	-1.38477e-012	-9.23128e-013	-4.61587e-013	-2.66048e-013	0	3.91197e-013	5.86795e-013	1.04855e-012	1.24419e-012	1.70604e-012	1.90174e-012	2.16764e-012	2.55941e-012	2.75517e-012	3.21722e-012	
FineR101	-3.28434e-012	-3.0894e-012	-2.62776e-012	-1.97103e-012	-1.97103e-012	-1.31416e-012	-1.31414e-012	-9.23275e-013	-4.61612e-013	-1.95539e-013	1.95575e-013	3.91174e-013	8.52903e-013	1.04854e-012	1.31451e-012	1.97198e-012	1.97198e-012	2.62959e-012	2.55942e-012	2.82528e-012	3.21724e-012	
FineR102	-3.47972e-012	-2.82317e-012	-2.55693e-012	-2.43269e-012	-1.97103e-012	-1.50963e-012	-1.04803e-012	-6.57153e-013	-4.61612e-013	0	1.95575e-013	6.57282e-013	8.52905e-013	1.1189e-012	1.51036e-012	1.70605e-012	2.16796e-012	2.36369e-012	2.62959e-012	3.02149e-012	3.21724e-012	
FineR103	-3.47972e-012	-2.82317e-012	-2.55693e-012	-2.16648e-012	-1.70486e-012	-1.24348e-012	-1.04802e-012	-8.52669e-013	-3.91054e-013	0	4.61635e-013	4.6161e-013	8.52905e-013	1.1189e-012	1.51038e-012	1.77633e-012	2.43391e-012	2.43391e-012	2.8955e-012	3.02149e-012	3.28734e-012	
FineR104	-3.01856e-012	-3.01856e-012	-2.3619e-012	-2.16648e-012	-1.70486e-012	-1.50965e-012	-8.52671e-013	-5.86547e-013	-3.91031e-013	2.66096e-013	2.6606e-013	9.23367e-013	8.5303e-013	1.31473e-012	1.58072e-012	2.23826e-012	2.43398e-012	2.69986e-012	3.09163e-012	3.09163e-012	3.74949e-012	
FineR105	-2.75229e-012	-2.75229e-012	-2.55693e-012	-1.90027e-012	-1.63411e-012	-1.24346e-012	-9.77337e-013	-5.86512e-013	7.05808e-014	7.05325e-014	4.61709e-013	7.27755e-013	1.11911e-012	1.38512e-012	1.84672e-012	2.23833e-012	2.23826e-012	2.69986e-012	2.89594e-012	3.35755e-012	3.55377e-012	
FineR106	-2.94762e-012	-2.75229e-012	-2.09566e-012	-2.09566e-012	-1.43889e-012	-1.17273e-012	-5.15858e-013	-5.86512e-013	7.05808e-014	3.36629e-013	7.27817e-013	9.93826e-013	1.18944e-012	1.65116e-012	1.84672e-012	2.04263e-012	2.50424e-012	2.70028e-012	3.1619e-012	3.35767e-012	3.35755e-012	
FineR107	-2.94762e-012	-2.29102e-012	-2.02481e-012	-1.63429e-012	-1.36811e-012	-9.77405e-013	-7.8197e-013	-5.15858e-013	1.41162e-013	5.32289e-013	7.98324e-013	9.93826e-013	1.18955e-012	1.65116e-012	1.84702e-012	2.30865e-012	2.50436e-012	2.70028e-012	3.1619e-012	3.35767e-012	3.8197e-012	
FineR108	-2.87665e-012	-2.41509e-012	-2.29102e-012	-1.63429e-012	-1.36811e-012	-9.06551e-013	-5.15775e-013	-5.42826e-014	1.41162e-013	3.367e-013	7.98324e-013	9.93925e-013	1.45563e-012	1.91721e-012	2.11308e-012	2.30877e-012	2.30865e-012	2.96627e-012	2.96627e-012	3.62404e-012	3.62404e-012	
FineR109	-2.68169e-012	-2.22005e-012	-2.02474e-012	-1.56346e-012	-1.36803e-012	-9.06654e-013	-5.15828e-013	-2.49704e-013	4.07389e-013	6.02967e-013	6.02845e-013	1.26012e-012	1.45575e-012	1.91753e-012	2.11308e-012	2.30877e-012	2.57467e-012	2.96641e-012	3.4284e-012	3.89001e-012	3.89001e-012	
FineR110	-2.41533e-012	-2.22005e-012	-1.75879e-012	-1.56337e-012	-1.10202e-012	-9.06654e-013	-7.11173e-013	-2.49704e-013	2.11887e-013	6.02967e-013	8.6899e-013	1.52623e-012	1.45575e-012	1.72171e-012	2.37913e-012	2.57508e-012	3.0367e-012	3.0367e-012	3.6944e-012	3.4284e-012	4.08627e-012	
MinCout:	0	FineR:	100	FineC:	130

