	CoarseC0	CoarseC10	CoarseC20	CoarseC30	CoarseC40	CoarseC50	CoarseC60	CoarseC70	CoarseC80	CoarseC90	CoarseC100	CoarseC110	CoarseC120	CoarseC130	CoarseC140	CoarseC150	CoarseC160	CoarseC170	CoarseC180	CoarseC190	CoarseC200	CoarseC210	CoarseC220	CoarseC230	CoarseC240	CoarseC250	
CoarseR0	-1.99237e-009	-1.98096e-009	-1.96469e-009	-1.94524e-009	-1.92208e-009	-1.89576e-009	-1.86747e-009	-1.83669e-009	-1.8032e-009	-1.76689e-009	-1.72752e-009	-1.68143e-009	-1.6335e-009	-1.58952e-009	-1.548e-009	-1.50982e-009	-1.47401e-009	-1.44003e-009	-1.40831e-009	-1.37941e-009	-1.35157e-009	-1.32592e-009	-1.30169e-009	-1.27924e-009	-1.2579e-009	-1.23804e-009	
CoarseR10	-1.54565e-009	-1.53047e-009	-1.51225e-009	-1.49092e-009	-1.46664e-009	-1.43984e-009	-1.41064e-009	-1.37922e-009	-1.3447e-009	-1.30755e-009	-1.26218e-009	-1.21537e-009	-1.17193e-009	-1.13249e-009	-1.09487e-009	-1.06034e-009	-1.02702e-009	-9.9621e-010	-9.67404e-010	-9.40934e-010	-9.16483e-010	-8.92725e-010	-8.70681e-010	-8.50529e-010	-8.31281e-010	-8.13406e-010	
CoarseR20	-1.27196e-009	-1.25491e-009	-1.23491e-009	-1.21238e-009	-1.18744e-009	-1.15958e-009	-1.1292e-009	-1.09706e-009	-1.06093e-009	-1.01799e-009	-9.7086e-010	-9.2764e-010	-8.8733e-010	-8.50546e-010	-8.15604e-010	-7.82776e-010	-7.52045e-010	-7.23642e-010	-6.96793e-010	-6.72414e-010	-6.49512e-010	-6.27954e-010	-6.07729e-010	-5.89149e-010	-5.7131e-010	-5.54665e-010	
CoarseR30	-1.08424e-009	-1.06538e-009	-1.04442e-009	-1.0205e-009	-9.9434e-010	-9.65355e-010	-9.33708e-010	-8.99722e-010	-8.59211e-010	-8.11688e-010	-7.67743e-010	-7.27053e-010	-6.89361e-010	-6.54026e-010	-6.20321e-010	-5.90056e-010	-5.60863e-010	-5.34093e-010	-5.09705e-010	-4.866e-010	-4.65236e-010	-4.44715e-010	-4.26211e-010	-4.0853e-010	-3.92207e-010	-3.76436e-010	
CoarseR40	-9.49533e-010	-9.28834e-010	-9.06422e-010	-8.81632e-010	-8.5372e-010	-8.23473e-010	-7.9061e-010	-7.54088e-010	-7.0626e-010	-6.60872e-010	-6.18871e-010	-5.80177e-010	-5.43475e-010	-5.0955e-010	-4.77822e-010	-4.48856e-010	-4.21598e-010	-3.96524e-010	-3.72766e-010	-3.51423e-010	-3.30971e-010	-3.12024e-010	-2.94574e-010	-2.77984e-010	-2.62632e-010	-2.47727e-010	
CoarseR50	-8.47527e-010	-8.2529e-010	-8.01562e-010	-7.75323e-010	-7.46156e-010	-7.14726e-010	-6.79511e-010	-6.36117e-010	-5.88765e-010	-5.44774e-010	-5.04616e-010	-4.66847e-010	-4.30991e-010	-3.98757e-010	-3.68339e-010	-3.40531e-010	-3.14938e-010	-2.90602e-010	-2.68311e-010	-2.47525e-010	-2.28476e-010	-2.10512e-010	-1.93584e-010	-1.777e-010	-1.63154e-010	-1.49644e-010	
CoarseR60	-7.66899e-010	-7.43162e-010	-7.18215e-010	-6.90539e-010	-6.60052e-010	-6.26752e-010	-5.89222e-010	-5.40185e-010	-4.94055e-010	-4.51925e-010	-4.12627e-010	-3.75294e-010	-3.41071e-010	-3.09857e-010	-2.80855e-010	-2.54264e-010	-2.29284e-010	-2.06474e-010	-1.84832e-010	-1.65629e-010	-1.46804e-010	-1.29506e-010	-1.13521e-010	-9.85852e-011	-8.47043e-011	-7.13793e-011	
CoarseR70	-7.02213e-010	-6.76533e-010	-6.5037e-010	-6.21668e-010	-5.89762e-010	-5.54788e-010	-5.10154e-010	-4.62277e-010	-4.17136e-010	-3.76247e-010	-3.37033e-010	-3.00862e-010	-2.67843e-010	-2.37815e-010	-2.09619e-010	-1.84065e-010	-1.59864e-010	-1.38052e-010	-1.17378e-010	-9.84081e-011	-8.09124e-011	-6.42709e-011	-4.89357e-011	-3.44251e-011	-2.12301e-011	-8.78254e-012	
CoarseR80	-6.48733e-010	-6.2225e-010	-5.94655e-010	-5.64309e-010	-5.31174e-010	-4.93613e-010	-4.44037e-010	-3.97215e-010	-3.53223e-010	-3.123e-010	-2.73805e-010	-2.38775e-010	-2.06775e-010	-1.77512e-010	-1.50162e-010	-1.25411e-010	-1.02505e-010	-8.0705e-011	-6.08281e-011	-4.22643e-011	-2.56941e-011	-9.47529e-012	4.98835e-012	1.88268e-011	3.16299e-011	4.35554e-011	
CoarseR90	-6.02389e-010	-5.75194e-010	-5.4606e-010	-5.15206e-010	-4.80277e-010	-4.37645e-010	-3.8702e-010	-3.41022e-010	-2.97805e-010	-2.56937e-010	-2.19467e-010	-1.84911e-010	-1.5376e-010	-1.25587e-010	-9.93169e-011	-7.50188e-011	-5.26905e-011	-3.19413e-011	-1.25056e-011	5.65964e-012	2.18173e-011	3.69059e-011	5.12111e-011	6.46195e-011	7.6726e-011	8.80074e-011	
CoarseR100	-5.63555e-010	-5.34727e-010	-5.04832e-010	-4.72541e-010	-4.35631e-010	-3.88065e-010	-3.37952e-010	-2.92858e-010	-2.49371e-010	-2.09309e-010	-1.72652e-010	-1.39251e-010	-1.0874e-010	-8.1192e-011	-5.52201e-011	-3.17583e-011	-9.86967e-012	1.0233e-011	2.90685e-011	4.65746e-011	6.23271e-011	7.69919e-011	9.08175e-011	1.0337e-010	1.15249e-010	1.26051e-010	
CoarseR110	-5.29666e-010	-4.99643e-010	-4.68288e-010	-4.34662e-010	-3.96271e-010	-3.44168e-010	-2.95241e-010	-2.50211e-010	-2.0678e-010	-1.67327e-010	-1.31475e-010	-9.88868e-011	-6.89869e-011	-4.19839e-011	-1.69125e-011	6.37949e-012	2.74148e-011	4.73946e-011	6.55652e-011	8.21946e-011	9.77352e-011	1.12228e-010	1.25362e-010	1.3791e-010	1.48856e-010	1.58975e-010	
CoarseR120	-4.99428e-010	-4.6816e-010	-4.35932e-010	-4.01367e-010	-3.58526e-010	-3.05655e-010	-2.56652e-010	-2.11634e-010	-1.68631e-010	-1.30256e-010	-9.50927e-011	-6.29342e-011	-3.37502e-011	-7.26754e-012	1.72343e-011	3.9955e-011	6.08581e-011	8.03811e-011	9.78834e-011	1.14574e-010	1.29472e-010	1.4327e-010	1.55952e-010	1.68033e-010	1.78742e-010	1.88345e-010	
CoarseR130	-4.72336e-010	-4.40324e-010	-4.07416e-010	-3.70884e-010	-3.23512e-010	-2.70748e-010	-2.22414e-010	-1.77061e-010	-1.3478e-010	-9.68849e-011	-6.21511e-011	-3.07243e-011	-2.06919e-012	2.39361e-011	4.82627e-011	7.03226e-011	9.05711e-011	1.09693e-010	1.27256e-010	1.4303e-010	1.57697e-010	1.71268e-010	1.83524e-010	1.94846e-010	2.05312e-010	2.14402e-010	
CoarseR140	-4.4886e-010	-4.15403e-010	-3.80761e-010	-3.42993e-010	-2.91806e-010	-2.39552e-010	-1.9138e-010	-1.46008e-010	-1.04105e-010	-6.66442e-011	-3.28128e-011	-1.81181e-012	2.6383e-011	5.20182e-011	7.59628e-011	9.76206e-011	1.17609e-010	1.36105e-010	1.53283e-010	1.68553e-010	1.83282e-010	1.96146e-010	2.08108e-010	2.19236e-010	2.28916e-010	2.37998e-010	
CoarseR150	-4.26555e-010	-3.92044e-010	-3.56882e-010	-3.17374e-010	-2.62794e-010	-2.10718e-010	-1.62386e-010	-1.17375e-010	-7.62906e-011	-3.93581e-011	-5.74803e-012	2.46244e-011	5.26464e-011	7.78914e-011	1.01153e-010	1.22411e-010	1.42277e-010	1.60316e-010	1.77216e-010	1.92583e-010	2.06347e-010	2.18942e-010	2.30421e-010	2.41014e-010	2.5047e-010	2.58744e-010	
CoarseR160	-4.06657e-010	-3.70753e-010	-3.34746e-010	-2.92981e-010	-2.36427e-010	-1.84659e-010	-1.35833e-010	-9.13557e-011	-5.06968e-011	-1.44904e-011	1.87828e-011	4.87924e-011	7.69059e-011	1.01417e-010	1.24582e-010	1.45689e-010	1.64872e-010	1.82918e-010	1.99145e-010	2.14059e-010	2.27541e-010	2.39887e-010	2.5108e-010	2.6115e-010	2.7032e-010	2.78575e-010	
CoarseR170	-3.88262e-010	-3.51591e-010	-3.14268e-010	-2.68459e-010	-2.12057e-010	-1.60781e-010	-1.11476e-010	-6.71925e-011	-2.71413e-011	8.55161e-012	4.1639e-011	7.12758e-011	9.87898e-011	1.22896e-010	1.46121e-010	1.66538e-010	1.85508e-010	2.03109e-010	2.19134e-010	2.33536e-010	2.46769e-010	2.59117e-010	2.69762e-010	2.79311e-010	2.88417e-010	2.95863e-010	
CoarseR180	-3.71002e-010	-3.33453e-010	-2.94796e-010	-2.45685e-010	-1.89653e-010	-1.38025e-010	-8.87539e-011	-4.5089e-011	-5.87349e-012	3.01757e-011	6.28706e-011	9.21255e-011	1.18981e-010	1.43151e-010	1.65737e-010	1.86205e-010	2.05211e-010	2.22384e-010	2.3786e-010	2.5248e-010	2.64945e-010	2.76791e-010	2.87186e-010	2.96646e-010	3.04679e-010	3.11788e-010	
CoarseR190	-3.55541e-010	-3.16731e-010	-2.77256e-010	-2.24912e-010	-1.68843e-010	-1.16747e-010	-6.8296e-011	-2.49738e-011	1.40931e-011	4.98376e-011	8.21995e-011	1.11249e-010	1.37695e-010	1.61702e-010	1.84066e-010	2.04309e-010	2.22544e-010	2.39737e-010	2.54963e-010	2.69141e-010	2.81567e-010	2.93094e-010	3.03206e-010	3.12078e-010	3.20071e-010	3.26569e-010	
CoarseR200	-3.4073e-010	-3.01524e-010	-2.60552e-010	-2.0544e-010	-1.49854e-010	-9.70646e-011	-4.90939e-011	-5.89476e-012	3.28108e-011	6.79688e-011	1.0016e-010	1.28851e-010	1.55304e-010	1.78978e-010	2.01114e-010	2.21071e-010	2.39411e-010	2.56039e-010	2.71031e-010	2.84947e-010	2.97361e-010	3.07813e-010	3.1788e-010	3.26728e-010	3.34111e-010	3.4079e-010	
CoarseR210	-3.26697e-010	-2.86848e-010	-2.4458e-010	-1.87459e-010	-1.32035e-010	-7.89428e-011	-3.09789e-011	1.15084e-011	5.05114e-011	8.50626e-011	1.16617e-010	1.45444e-010	1.71513e-010	1.95446e-010	2.16802e-010	2.36553e-010	2.54411e-010	2.71357e-010	2.86078e-010	2.99664e-010	3.11492e-010	3.22464e-010	3.31943e-010	3.40152e-010	3.47241e-010	3.53548e-010	
CoarseR220	-3.14235e-010	-2.72999e-010	-2.29513e-010	-1.70432e-010	-1.14944e-010	-6.14348e-011	-1.41268e-011	2.81171e-011	6.6561e-011	1.01048e-010	1.32674e-010	1.6105e-010	1.87165e-010	2.10366e-010	2.32075e-010	2.51338e-010	2.69196e-010	2.85577e-010	3.00517e-010	3.13253e-010	3.25135e-010	3.35749e-010	3.44845e-010	3.5276e-010	3.59448e-010	3.64918e-010	
CoarseR230	-3.02362e-010	-2.60233e-010	-2.14215e-010	-1.54767e-010	-9.88385e-011	-4.56883e-011	1.68745e-012	4.34678e-011	8.23223e-011	1.16396e-010	1.47595e-010	1.76076e-010	2.01726e-010	2.2474e-010	2.45892e-010	2.65383e-010	2.82975e-010	2.98846e-010	3.13787e-010	3.26226e-010	3.37984e-010	3.48304e-010	3.57101e-010	3.64938e-010	3.70996e-010	3.76337e-010	
CoarseR240	-2.90779e-010	-2.47893e-010	-1.9958e-010	-1.3963e-010	-8.35497e-011	-3.04891e-011	1.65764e-011	5.81066e-011	9.6333e-011	1.29972e-010	1.61544e-010	1.89718e-010	2.1511e-010	2.37866e-010	2.59133e-010	2.78689e-010	2.96192e-010	3.11775e-010	3.26192e-010	3.38592e-010	3.50058e-010	3.59998e-010	3.68718e-010	3.75656e-010	3.81818e-010	3.86246e-010	
CoarseR250	-2.79775e-010	-2.36419e-010	-1.85531e-010	-1.26025e-010	-6.93225e-011	-1.64674e-011	3.03592e-011	7.21432e-011	1.09669e-010	1.43695e-010	1.74825e-010	2.02536e-010	2.28068e-010	2.50818e-010	2.7181e-010	2.90782e-010	3.08336e-010	3.23888e-010	3.37925e-010	3.50545e-010	3.61461e-010	3.71318e-010	3.79144e-010	3.86515e-010	3.91492e-010	3.95742e-010	
MinCout:	1.68745e-012	CoarseR:	230	CoarseC:	60

	CoarseC160	CoarseC161	CoarseC162	CoarseC163	CoarseC164	CoarseC165	CoarseC166	CoarseC167	CoarseC168	CoarseC169	CoarseC170	CoarseC171	CoarseC172	CoarseC173	CoarseC174	CoarseC175	CoarseC176	CoarseC177	CoarseC178	CoarseC179	CoarseC180	
CoarseR90	-5.27456e-011	-5.05337e-011	-4.83845e-011	-4.6233e-011	-4.42815e-011	-4.21275e-011	-3.99106e-011	-3.75517e-011	-3.58505e-011	-3.4156e-011	-3.19939e-011	-3.00341e-011	-2.80733e-011	-2.59067e-011	-2.3741e-011	-2.2031e-011	-2.03276e-011	-1.81547e-011	-1.6187e-011	-1.42183e-011	-1.25101e-011	
CoarseR91	-4.8337e-011	-4.59235e-011	-4.37733e-011	-4.18225e-011	-3.92041e-011	-3.77699e-011	-3.52966e-011	-3.31921e-011	-3.14979e-011	-2.92761e-011	-2.73768e-011	-2.54165e-011	-2.34551e-011	-2.15425e-011	-1.95787e-011	-1.74107e-011	-1.56995e-011	-1.39941e-011	-1.18187e-011	-9.84927e-012	-8.14008e-012	
CoarseR92	-4.3695e-011	-4.1746e-011	-3.9393e-011	-3.74415e-011	-3.52871e-011	-3.33331e-011	-3.0913e-011	-2.8957e-011	-2.70528e-011	-2.50944e-011	-2.27275e-011	-2.12317e-011	-1.90666e-011	-1.71035e-011	-1.5189e-011	-1.32235e-011	-1.15184e-011	-9.55076e-012	-7.37451e-012	-5.92068e-012	-3.94948e-012	
CoarseR93	-3.90894e-011	-3.71397e-011	-3.49876e-011	-3.30354e-011	-3.08743e-011	-2.892e-011	-2.67616e-011	-2.48048e-011	-2.26431e-011	-2.04807e-011	-1.85205e-011	-1.66159e-011	-1.49096e-011	-1.29457e-011	-1.09808e-011	-8.80814e-012	-7.10216e-012	-5.18553e-012	-3.21594e-012	-1.44977e-012	4.69628e-013	
CoarseR94	-3.4919e-011	-3.27055e-011	-3.03496e-011	-2.83967e-011	-2.62397e-011	-2.42846e-011	-2.2383e-011	-2.01675e-011	-1.82623e-011	-1.63023e-011	-1.40838e-011	-1.23791e-011	-1.02101e-011	-8.50707e-012	-6.59416e-012	-4.62734e-012	-2.65952e-012	-4.82744e-013	1.2266e-012	3.19789e-012	4.65332e-012	
CoarseR95	-3.07191e-011	-2.85666e-011	-2.61483e-011	-2.41949e-011	-2.20375e-011	-2.00817e-011	-1.79211e-011	-1.62216e-011	-1.40578e-011	-1.2359e-011	-1.01918e-011	-8.43457e-012	-6.06015e-012	-4.09492e-012	-2.12869e-012	-2.1137e-013	1.49647e-012	3.46634e-012	5.18009e-012	6.8915e-012	9.07411e-012	
CoarseR96	-2.62976e-011	-2.41397e-011	-2.21867e-011	-2.00299e-011	-1.80745e-011	-1.59141e-011	-1.39565e-011	-1.17933e-011	-9.88727e-012	-7.66681e-012	-5.96311e-012	-4.26086e-012	-2.09127e-012	-1.25394e-013	2.04898e-012	4.01725e-012	5.72581e-012	7.43831e-012	9.61894e-012	1.11258e-011	1.30997e-011	
CoarseR97	-2.21059e-011	-2.01535e-011	-1.77932e-011	-1.58381e-011	-1.38821e-011	-1.17208e-011	-9.55776e-012	-7.59806e-012	-5.897e-012	-3.93511e-012	-1.76601e-012	-6.28576e-014	1.90263e-012	4.07656e-012	5.78554e-012	7.75458e-012	9.46405e-012	1.1641e-011	1.3304e-011	1.50719e-011	1.70467e-011	
CoarseR98	-1.80995e-011	-1.59423e-011	-1.3784e-011	-1.15674e-011	-9.61091e-012	-7.65337e-012	-5.54559e-012	-3.84684e-012	-1.88538e-012	2.83217e-013	2.24713e-012	4.21206e-012	6.07027e-012	8.03803e-012	1.00068e-011	1.17171e-011	1.39474e-011	1.566e-011	1.75825e-011	1.9557e-011	2.10136e-011	
CoarseR99	-1.39222e-011	-1.19684e-011	-9.75149e-012	-7.64841e-012	-5.69088e-012	-3.7323e-012	-1.77267e-012	3.93631e-013	2.56129e-012	4.05783e-012	6.43484e-012	8.1934e-012	1.01071e-011	1.20752e-011	1.39923e-011	1.54939e-011	1.76717e-011	1.93872e-011	2.13612e-011	2.30762e-011	2.47927e-011	
CoarseR100	-9.92744e-012	-7.97284e-012	-5.75534e-012	-3.59446e-012	-1.43094e-012	5.28286e-013	2.22727e-012	4.39473e-012	6.09598e-012	8.06008e-012	1.02314e-011	1.21977e-011	1.43731e-011	1.60814e-011	1.80513e-011	1.97105e-011	2.14735e-011	2.36568e-011	2.5371e-011	2.70871e-011	2.9064e-011	
CoarseR101	-5.91027e-012	-4.16067e-012	-1.9991e-012	4.25645e-013	2.32718e-012	4.08108e-012	6.45384e-012	8.4162e-012	1.03796e-011	1.20833e-011	1.42565e-011	1.59617e-011	1.793e-011	1.9639e-011	2.17641e-011	2.37363e-011	2.52422e-011	2.72164e-011	2.94025e-011	3.09083e-011	3.30442e-011	
CoarseR102	-1.87026e-012	-1.784e-013	2.04014e-012	4.40916e-012	6.36868e-012	8.32928e-012	1.04972e-011	1.24603e-011	1.41616e-011	1.61292e-011	1.80398e-011	2.00088e-011	2.21851e-011	2.38952e-011	2.56043e-011	2.77869e-011	2.95011e-011	3.14762e-011	3.31928e-011	3.49085e-011	3.68892e-011	
CoarseR103	1.71872e-012	4.08562e-012	6.24982e-012	8.00237e-012	1.03747e-011	1.23363e-011	1.40351e-011	1.62627e-011	1.81714e-011	2.01377e-011	2.18448e-011	2.40209e-011	2.59907e-011	2.77016e-011	2.96207e-011	3.15943e-011	3.33093e-011	3.50225e-011	3.69995e-011	3.87182e-011	4.06974e-011	
CoarseR104	5.73935e-012	7.63964e-012	1.00662e-011	1.20257e-011	1.39864e-011	1.61547e-011	1.80607e-011	2.00252e-011	2.19908e-011	2.39054e-011	2.58737e-011	2.7583e-011	2.95535e-011	3.12615e-011	3.34446e-011	3.49485e-011	3.71346e-011	3.85884e-011	4.05662e-011	4.22858e-011	4.42658e-011	
CoarseR105	9.519e-012	1.12697e-011	1.3641e-011	1.53357e-011	1.7558e-011	1.99394e-011	2.16383e-011	2.36036e-011	2.57781e-011	2.74857e-011	2.919e-011	3.11602e-011	3.31315e-011	3.48441e-011	3.70262e-011	3.9212e-011	4.07199e-011	4.24333e-011	4.43616e-011	4.63413e-011	4.77996e-011	
CoarseR106	1.28424e-011	1.52671e-011	1.69657e-011	1.91341e-011	2.15635e-011	2.32663e-011	2.51731e-011	2.7139e-011	2.93145e-011	3.1283e-011	3.29926e-011	3.46982e-011	3.66702e-011	3.88537e-011	4.05687e-011	4.25444e-011	4.42619e-011	4.59754e-011	4.7908e-011	4.96758e-011	5.16116e-011	
CoarseR107	1.66559e-011	1.88206e-011	2.07811e-011	2.29506e-011	2.51205e-011	2.70848e-011	2.87837e-011	3.07503e-011	3.29266e-011	3.48448e-011	3.68153e-011	3.85779e-011	4.04939e-011	4.22083e-011	4.41834e-011	4.61119e-011	4.78245e-011	4.98034e-011	5.15244e-011	5.35056e-011	5.49644e-011	
CoarseR108	2.0221e-011	2.23889e-011	2.43499e-011	2.63121e-011	2.86912e-011	3.06561e-011	3.23551e-011	3.4798e-011	3.64998e-011	3.82098e-011	4.01809e-011	4.2153e-011	4.40775e-011	4.60524e-011	4.79719e-011	4.99491e-011	5.11927e-011	5.33822e-011	5.51041e-011	5.6617e-011	5.86e-011	
CoarseR109	2.40729e-011	2.6242e-011	2.79355e-011	3.01073e-011	3.20716e-011	3.42452e-011	3.62121e-011	3.81802e-011	4.00989e-011	4.15925e-011	4.37743e-011	4.54879e-011	4.74622e-011	4.94376e-011	5.13574e-011	5.30762e-011	5.50552e-011	5.69896e-011	5.84915e-011	6.02154e-011	6.2199e-011	
CoarseR110	2.7411e-011	2.95788e-011	3.18018e-011	3.3505e-011	3.5679e-011	3.76442e-011	3.95527e-011	4.15215e-011	4.34913e-011	4.52027e-011	4.7117e-011	4.91483e-011	5.10653e-011	5.3041e-011	5.44915e-011	5.67286e-011	5.8449e-011	6.01624e-011	6.18854e-011	6.36097e-011	6.55936e-011	
MinCout:	-6.28576e-014	CoarseR:	97	CoarseC:	171

	FineC0	FineC10	FineC20	FineC30	FineC40	FineC50	FineC60	FineC70	FineC80	FineC90	FineC100	FineC110	FineC120	FineC130	FineC140	FineC150	FineC160	FineC170	FineC180	FineC190	FineC200	FineC210	FineC220	FineC230	FineC240	FineC250	
FineR0	-1.77573e-010	-1.52205e-010	-1.35531e-010	-1.22609e-010	-1.12489e-010	-1.03806e-010	-9.68789e-011	-9.10772e-011	-8.61201e-011	-8.17638e-011	-7.81304e-011	-7.47026e-011	-7.18707e-011	-6.92493e-011	-6.68766e-011	-6.47154e-011	-6.27534e-011	-6.10535e-011	-5.93023e-011	-5.7753e-011	-5.64537e-011	-5.49626e-011	-5.38758e-011	-5.29926e-011	-5.19048e-011	-5.08165e-011	
FineR10	-1.46874e-010	-1.22371e-010	-1.05669e-010	-9.31147e-011	-8.27781e-011	-7.47958e-011	-6.78584e-011	-6.1979e-011	-5.72805e-011	-5.24634e-011	-4.90251e-011	-4.57914e-011	-4.27553e-011	-4.03843e-011	-3.77551e-011	-3.58521e-011	-3.38879e-011	-3.21257e-011	-3.0428e-011	-2.91303e-011	-2.77807e-011	-2.64888e-011	-2.54508e-011	-2.43613e-011	-2.30166e-011	-2.23944e-011	
FineR20	-1.33422e-010	-1.08907e-010	-9.29127e-011	-7.98933e-011	-6.97505e-011	-6.15003e-011	-5.48242e-011	-4.874e-011	-4.42414e-011	-3.9939e-011	-3.61823e-011	-3.30013e-011	-2.97069e-011	-2.71319e-011	-2.49667e-011	-2.30037e-011	-2.08342e-011	-1.93348e-011	-1.78332e-011	-1.62795e-011	-1.49867e-011	-1.34864e-011	-1.25986e-011	-1.15649e-011	-1.0679e-011	-9.79512e-012	
FineR30	-1.25681e-010	-1.01367e-010	-8.51727e-011	-7.24199e-011	-6.24616e-011	-5.42116e-011	-4.7077e-011	-4.17172e-011	-3.64924e-011	-3.2392e-011	-2.87509e-011	-2.54539e-011	-2.26783e-011	-2.0049e-011	-1.7417e-011	-1.55076e-011	-1.35461e-011	-1.20992e-011	-1.03394e-011	-8.78491e-012	-7.48755e-012	-6.39822e-012	-5.10288e-012	-4.0122e-012	-3.12881e-012	-2.29816e-012	
FineR40	-1.20625e-010	-9.61031e-011	-7.98407e-011	-6.75365e-011	-5.73209e-011	-4.91333e-011	-4.24601e-011	-3.63736e-011	-3.1671e-011	-2.75699e-011	-2.38709e-011	-2.03712e-011	-1.77993e-011	-1.52242e-011	-1.25915e-011	-1.08896e-011	-8.9245e-012	-7.21918e-012	-5.46006e-012	-4.16249e-012	-2.60697e-012	-1.51931e-012	-4.79909e-013	4.03054e-013	1.43927e-012	2.32544e-012	
FineR50	-1.17313e-010	-9.28737e-011	-7.65959e-011	-6.40359e-011	-5.38816e-011	-4.56299e-011	-3.89514e-011	-3.33309e-011	-2.83655e-011	-2.42646e-011	-2.05655e-011	-1.7328e-011	-1.42898e-011	-1.19194e-011	-9.34324e-012	-7.37969e-012	-5.41455e-012	-3.7091e-012	-2.41417e-012	-6.52279e-013	3.83456e-013	1.67904e-012	2.82251e-012	3.86068e-012	4.74398e-012	5.83611e-012	
FineR60	-1.14889e-010	-9.0368e-011	-7.41708e-011	-6.16076e-011	-5.14523e-011	-4.34639e-011	-3.67256e-011	-3.06386e-011	-2.56732e-011	-2.15721e-011	-1.81333e-011	-1.48954e-011	-1.18014e-011	-9.48809e-012	-7.11474e-012	-4.94596e-012	-3.242e-012	-1.01542e-012	2.79308e-013	1.31382e-012	2.86961e-012	4.16517e-012	4.99633e-012	6.34653e-012	7.43816e-012	8.53041e-012	
FineR70	-1.12774e-010	-8.8518e-011	-7.22427e-011	-5.94174e-011	-4.97284e-011	-4.12764e-011	-3.43988e-011	-2.85141e-011	-2.38107e-011	-1.94465e-011	-1.57465e-011	-1.25082e-011	-9.93609e-012	-7.36064e-012	-4.9324e-012	-2.76385e-012	-1.06008e-012	6.45481e-013	1.94e-012	3.49502e-012	4.73787e-012	6.03383e-012	7.38528e-012	8.47649e-012	9.09892e-012	1.01912e-011	
FineR80	-1.11173e-010	-8.71021e-011	-7.06374e-011	-5.78109e-011	-4.79191e-011	-3.9728e-011	-3.29888e-011	-2.73676e-011	-2.2402e-011	-1.80393e-011	-1.46573e-011	-1.11006e-011	-8.32395e-012	-5.74866e-012	-3.52576e-012	-1.41267e-012	5.52616e-013	2.05157e-012	3.75874e-012	5.10816e-012	6.40323e-012	7.43932e-012	8.79062e-012	1.0088e-011	1.05041e-011	1.15963e-011	
FineR90	-1.09804e-010	-8.55488e-011	-6.92834e-011	-5.67841e-011	-4.6565e-011	-3.83738e-011	-3.18967e-011	-2.58086e-011	-2.10474e-011	-1.67417e-011	-1.33027e-011	-1.00639e-011	-7.22994e-012	-4.39376e-012	-2.22693e-012	-3.18668e-013	1.64647e-012	3.40664e-012	4.70075e-012	6.4633e-012	7.49848e-012	8.79455e-012	1.01458e-011	1.12347e-011	1.20658e-011	1.28984e-011	
FineR100	-1.08516e-010	-8.46457e-011	-6.81821e-011	-5.58852e-011	-4.57296e-011	-3.74726e-011	-3.07983e-011	-2.49734e-011	-1.99497e-011	-1.58485e-011	-1.19441e-011	-8.70575e-012	-6.13387e-012	-3.55864e-012	-1.13044e-012	1.0388e-012	2.74283e-012	4.50271e-012	5.74295e-012	7.29833e-012	8.85435e-012	9.89027e-012	1.11872e-011	1.22784e-011	1.31614e-011	1.42537e-011	
FineR110	-1.07946e-010	-8.36083e-011	-6.73444e-011	-5.48462e-011	-4.48923e-011	-3.67012e-011	-2.94953e-011	-2.38741e-011	-1.93751e-011	-1.48072e-011	-1.11071e-011	-8.13008e-012	-5.29693e-012	-2.72177e-012	-2.93591e-013	1.87503e-012	3.78541e-012	5.28432e-012	7.04614e-012	8.34117e-012	9.63657e-012	1.0727e-011	1.20239e-011	1.31152e-011	1.39981e-011	1.48299e-011	
FineR120	-1.07091e-010	-8.25691e-011	-6.65701e-011	-5.39997e-011	-4.40474e-011	-3.55945e-011	-2.89199e-011	-2.35576e-011	-1.85343e-011	-1.42293e-011	-1.03262e-011	-7.08735e-012	-4.25363e-012	-1.88359e-012	4.88685e-013	2.65759e-012	4.36189e-012	6.12242e-012	7.62232e-012	9.12456e-012	1.04205e-011	1.13023e-011	1.25992e-011	1.36904e-011	1.47822e-011	1.56654e-011	
FineR130	-1.0632e-010	-8.22501e-011	-6.57852e-011	-5.32228e-011	-4.35335e-011	-3.50134e-011	-2.81361e-011	-2.27773e-011	-1.75493e-011	-1.34478e-011	-9.7476e-012	-6.77064e-012	-3.67571e-012	-1.10068e-012	1.06612e-012	3.23483e-012	5.19966e-012	6.69926e-012	8.14552e-012	9.70114e-012	1.12574e-011	1.20869e-011	1.3384e-011	1.42665e-011	1.53582e-011	1.64505e-011	
FineR140	-1.05801e-010	-8.14758e-011	-6.52005e-011	-5.24379e-011	-4.24848e-011	-3.44972e-011	-2.78181e-011	-2.19932e-011	-1.72318e-011	-1.31287e-011	-9.22568e-012	-5.98705e-012	-3.1536e-012	-5.78632e-013	1.79424e-012	3.75781e-012	5.2552e-012	7.22168e-012	8.98356e-012	1.00175e-011	1.15737e-011	1.287e-011	1.39606e-011	1.47915e-011	1.56743e-011	1.67665e-011	
FineR150	-1.05479e-010	-8.06889e-011	-6.48804e-011	-5.21186e-011	-4.21659e-011	-3.41737e-011	-2.72965e-011	-2.14124e-011	-1.64474e-011	-1.23463e-011	-8.64624e-012	-5.66963e-012	-2.63115e-012	0	1.90543e-012	4.33527e-012	6.29996e-012	8.00535e-012	9.29894e-012	1.08012e-011	1.20967e-011	1.3393e-011	1.44837e-011	1.5575e-011	1.61973e-011	1.72897e-011	
FineR160	-1.04691e-010	-8.0623e-011	-6.43595e-011	-5.18619e-011	-4.16443e-011	-3.36519e-011	-2.65114e-011	-2.1153e-011	-1.61268e-011	-1.18238e-011	-8.38558e-012	-5.08937e-012	-2.05203e-012	3.17458e-013	2.6896e-012	4.85827e-012	6.562e-012	8.32248e-012	9.82205e-012	1.11165e-011	1.26199e-011	1.37079e-011	1.47984e-011	1.58895e-011	1.69812e-011	1.76038e-011	
FineR170	-1.04354e-010	-8.0102e-011	-6.38382e-011	-5.15344e-011	-4.15827e-011	-3.31298e-011	-2.61886e-011	-2.05685e-011	-1.58667e-011	-1.1766e-011	-7.80434e-012	-4.82831e-012	-1.79033e-012	5.79104e-013	3.15694e-012	5.38145e-012	7.08526e-012	8.58367e-012	1.00846e-011	1.16399e-011	1.29352e-011	1.42314e-011	1.53219e-011	1.6413e-011	1.72956e-011	1.81274e-011	
FineR180	-1.03903e-010	-7.95809e-011	-6.35729e-011	-5.10127e-011	-4.08583e-011	-3.28711e-011	-2.61923e-011	-2.01049e-011	-1.5344e-011	-1.12431e-011	-7.54325e-012	-4.10029e-012	-1.52874e-012	1.10229e-012	3.21301e-012	5.17605e-012	7.1407e-012	9.10715e-012	1.04005e-011	1.23697e-011	1.31981e-011	1.4755e-011	1.58456e-011	1.64674e-011	1.7559e-011	1.84419e-011	
FineR190	-1.03382e-010	-7.92477e-011	-6.30512e-011	-5.0289e-011	-4.05324e-011	-3.23438e-011	-2.54028e-011	-1.97829e-011	-1.50228e-011	-1.07183e-011	-7.07743e-012	-4.04299e-012	-1.21031e-012	1.62566e-012	3.73646e-012	5.69955e-012	7.87013e-012	9.16246e-012	1.11303e-011	1.24246e-011	1.372e-011	1.48096e-011	1.61065e-011	1.69887e-011	1.78198e-011	1.89632e-011	
FineR200	-1.03496e-010	-7.89813e-011	-6.27117e-011	-4.99537e-011	-4.00041e-011	-3.22175e-011	-2.55422e-011	-1.94579e-011	-1.46994e-011	-1.03967e-011	-6.69846e-012	-3.46177e-012	-8.91645e-013	1.94342e-012	4.10865e-012	6.27681e-012	7.77311e-012	9.73866e-012	1.10312e-011	1.27386e-011	1.38273e-011	1.53835e-011	1.62131e-011	1.751e-011	1.81344e-011	1.92776e-011	
FineR210	-1.02959e-010	-7.89028e-011	-6.24461e-011	-4.98904e-011	-3.99421e-011	-3.19536e-011	-2.48163e-011	-1.91978e-011	-1.44365e-011	-1.01355e-011	-6.43727e-012	-3.20029e-012	-6.29933e-013	2.2054e-012	4.3712e-012	6.53851e-012	8.50269e-012	1.00014e-011	1.15001e-011	1.32626e-011	1.42967e-011	1.58531e-011	1.67346e-011	1.78251e-011	1.86561e-011	1.9748e-011	
FineR220	-1.0289e-010	-7.83812e-011	-6.23812e-011	-4.96254e-011	-3.96777e-011	-3.16945e-011	-2.47561e-011	-1.89346e-011	-1.41759e-011	-9.81522e-012	-6.17473e-012	-3.14292e-012	-3.67746e-013	2.46746e-012	4.6327e-012	6.59459e-012	8.55855e-012	1.0263e-011	1.1763e-011	1.33178e-011	1.43517e-011	1.59079e-011	1.6998e-011	1.82952e-011	1.87105e-011	1.98022e-011	
FineR230	-1.02438e-010	-7.79263e-011	-6.21247e-011	-4.93678e-011	-3.96155e-011	-3.14305e-011	-2.4293e-011	-1.86743e-011	-1.39133e-011	-9.61207e-012	-5.91337e-012	-2.67626e-012	-1.05854e-013	2.72963e-012	4.89502e-012	7.06281e-012	8.7658e-012	1.04706e-011	1.20246e-011	1.35261e-011	1.48213e-011	1.59109e-011	1.72076e-011	1.82985e-011	1.93901e-011	2.00125e-011	
FineR240	-1.02185e-010	-7.7671e-011	-6.16673e-011	-4.91102e-011	-3.91607e-011	-3.09732e-011	-2.42961e-011	-1.82101e-011	-1.34503e-011	-9.35047e-012	-5.6514e-012	-2.67609e-012	3.61375e-013	2.93558e-012	4.89633e-012	7.27091e-012	8.97454e-012	1.09948e-011	1.24953e-011	1.40504e-011	1.50847e-011	1.63808e-011	1.74712e-011	1.85622e-011	1.94446e-011	2.02764e-011	
FineR250	-1.01734e-010	-7.76709e-011	-6.14107e-011	-4.91098e-011	-3.91603e-011	-3.0709e-011	-2.42957e-011	-1.84135e-011	-1.34498e-011	-9.08745e-012	-5.65089e-012	-2.1519e-012	4.18567e-013	2.9924e-012	5.36446e-012	7.53293e-012	9.49739e-012	1.09953e-011	1.22882e-011	1.4051e-011	1.53462e-011	1.64353e-011	1.74717e-011	1.88231e-011	1.94451e-011	2.05372e-011	
MinCout:	0	FineR:	150	FineC:	130

	FineC120	FineC121	FineC122	FineC123	FineC124	FineC125	FineC126	FineC127	FineC128	FineC129	FineC130	FineC131	FineC132	FineC133	FineC134	FineC135	FineC136	FineC137	FineC138	FineC139	FineC140	
FineR140	-3.35833e-012	-2.89171e-012	-2.68692e-012	-2.27676e-012	-2.07155e-012	-2.07155e-012	-1.39981e-012	-1.39972e-012	-9.89255e-013	-9.8915e-013	-7.83835e-013	-1.11775e-013	-1.11775e-013	3.54903e-013	9.36912e-014	5.04606e-013	7.6591e-013	1.177e-012	1.43826e-012	1.58837e-012	1.84962e-012	
FineR141	-3.35833e-012	-2.68692e-012	-2.68692e-012	-2.27676e-012	-2.27676e-012	-1.81011e-012	-1.39981e-012	-1.66116e-012	-1.19446e-012	-5.22557e-013	-7.83835e-013	-1.11775e-013	-1.11775e-013	1.49531e-013	5.60417e-013	2.99196e-013	7.6591e-013	1.177e-012	1.17711e-012	1.38257e-012	1.58837e-012	
FineR142	-3.35833e-012	-2.89171e-012	-2.68692e-012	-2.22031e-012	-2.07155e-012	-1.81011e-012	-1.60489e-012	-1.13842e-012	-1.19446e-012	-7.27872e-013	-7.83835e-013	-3.17156e-013	-1.11775e-013	-1.11775e-013	5.60417e-013	7.65826e-013	1.02709e-012	9.71547e-013	1.43826e-012	1.43826e-012	1.84953e-012	
FineR143	-3.0969e-012	-2.687e-012	-2.68692e-012	-2.22031e-012	-2.01539e-012	-1.60515e-012	-1.39981e-012	-1.39981e-012	-7.27938e-013	-7.27938e-013	-5.22557e-013	-3.17222e-013	1.49475e-013	1.49475e-013	5.60417e-013	7.65826e-013	7.65826e-013	1.23274e-012	1.4382e-012	1.43826e-012	1.84953e-012	
FineR144	-3.0969e-012	-2.89216e-012	-2.42552e-012	-2.48176e-012	-2.01539e-012	-1.81018e-012	-1.34372e-012	-1.13847e-012	-7.27938e-013	-7.27938e-013	-2.61278e-013	-5.59344e-014	-1.11869e-013	3.54942e-013	8.21638e-013	8.21638e-013	7.65826e-013	1.23274e-012	1.4382e-012	1.90519e-012	2.1107e-012	
FineR145	-2.89222e-012	-2.63072e-012	-2.42552e-012	-2.22065e-012	-2.01545e-012	-1.54901e-012	-1.60515e-012	-1.13847e-012	-9.33302e-013	-4.66622e-013	-5.22651e-013	-5.59344e-014	1.49419e-013	3.54942e-013	5.60342e-013	8.21638e-013	1.02724e-012	1.23268e-012	1.69966e-012	1.64396e-012	1.90519e-012	
FineR146	-2.89222e-012	-2.63072e-012	-2.2207e-012	-2.22065e-012	-2.01545e-012	-1.34376e-012	-1.60515e-012	-1.13847e-012	-9.33302e-013	-4.66622e-013	-3.17307e-013	-5.59344e-014	1.49419e-013	1.49475e-013	5.60342e-013	8.21638e-013	1.23268e-012	1.49393e-012	1.49393e-012	1.90516e-012	2.1107e-012	
FineR147	-2.89222e-012	-2.63072e-012	-2.2207e-012	-1.95924e-012	-1.75404e-012	-1.54901e-012	-1.34376e-012	-1.13865e-012	-9.33302e-013	-2.61325e-013	-2.61325e-013	-5.59816e-014	-5.59344e-014	3.54876e-013	6.16201e-013	8.21601e-013	1.02724e-012	1.23268e-012	1.49393e-012	1.90516e-012	1.90516e-012	
FineR148	-2.83589e-012	-2.63075e-012	-2.2207e-012	-1.95924e-012	-1.75404e-012	-1.54904e-012	-8.77254e-013	-1.13865e-012	-6.71948e-013	-7.28005e-013	-2.61325e-013	-5.59816e-014	4.10782e-013	6.16173e-013	6.16201e-013	1.02719e-012	1.02719e-012	1.28847e-012	1.69964e-012	1.96086e-012	1.90516e-012	
FineR149	-2.57441e-012	-2.42593e-012	-2.16444e-012	-1.95925e-012	-1.75428e-012	-1.54904e-012	-1.08238e-012	-8.77254e-013	-6.71948e-013	-6.71948e-013	0	-5.59816e-014	4.10782e-013	4.10782e-013	8.7746e-013	1.08286e-012	1.02719e-012	1.69964e-012	1.69964e-012	1.96086e-012	2.37221e-012	
FineR150	-2.57441e-012	-2.42593e-012	-2.16444e-012	-1.95925e-012	-1.54904e-012	-1.54904e-012	-1.08238e-012	-8.77254e-013	-6.71948e-013	-4.66698e-013	0	0	6.72079e-013	4.10782e-013	6.16173e-013	1.08286e-012	1.28847e-012	1.28847e-012	1.69964e-012	2.16636e-012	2.16636e-012	
FineR151	-2.57441e-012	-2.16444e-012	-2.16444e-012	-1.95925e-012	-1.7543e-012	-1.28762e-012	-1.08254e-012	-8.77254e-013	-4.10593e-013	-2.05335e-013	-2.61363e-013	0	4.10764e-013	6.72079e-013	1.08302e-012	1.08302e-012	1.28846e-012	1.49413e-012	1.69961e-012	2.16668e-012	2.37221e-012	
FineR152	-2.5744e-012	-2.36963e-012	-2.16444e-012	-1.90299e-012	-1.7543e-012	-1.28762e-012	-1.28762e-012	-6.15862e-013	-6.72052e-013	-2.05335e-013	0	4.66716e-013	6.72098e-013	6.72079e-013	1.08302e-012	1.08302e-012	1.28846e-012	1.49413e-012	1.96088e-012	1.96088e-012	2.63342e-012	
FineR153	-2.5744e-012	-2.10814e-012	-2.16444e-012	-1.69808e-012	-1.49284e-012	-1.28762e-012	-1.08254e-012	-6.15862e-013	-4.10651e-013	-2.05335e-013	-2.05335e-013	2.05373e-013	4.66716e-013	6.72079e-013	1.08302e-012	1.08302e-012	1.54973e-012	1.49413e-012	1.96088e-012	1.96088e-012	2.37221e-012	
FineR154	-2.5744e-012	-2.10814e-012	-1.90296e-012	-1.95955e-012	-1.49284e-012	-1.08254e-012	-8.21113e-013	-8.77265e-013	-4.10651e-013	5.60287e-014	-2.05335e-013	4.66716e-013	4.66716e-013	6.72098e-013	1.1389e-012	1.08302e-012	1.54994e-012	1.75541e-012	1.75541e-012	1.96088e-012	2.37221e-012	
FineR155	-2.31327e-012	-2.36962e-012	-2.10814e-012	-1.69805e-012	-1.49284e-012	-1.28781e-012	-8.21113e-013	-6.15835e-013	-4.10651e-013	-2.05325e-013	2.61373e-013	4.66745e-013	4.66745e-013	8.77603e-013	1.08302e-012	1.34433e-012	1.54996e-012	1.75541e-012	1.75541e-012	2.16669e-012	2.42793e-012	
FineR156	-2.57478e-012	-2.1081e-012	-1.90323e-012	-1.69805e-012	-1.49283e-012	-1.23139e-012	-1.02639e-012	-8.21113e-013	-1.49249e-013	5.60759e-014	5.60287e-014	4.66745e-013	4.66745e-013	1.13895e-012	8.77603e-013	1.34433e-012	1.54996e-012	1.54996e-012	2.01669e-012	2.16669e-012	2.42793e-012	
FineR157	-2.31322e-012	-2.1081e-012	-1.84665e-012	-1.69805e-012	-1.23139e-012	-1.23139e-012	-5.59683e-013	-8.21113e-013	-1.49249e-013	5.60759e-014	3.17392e-013	4.66745e-013	4.66745e-013	1.13895e-012	1.13895e-012	1.34433e-012	1.81128e-012	1.75543e-012	2.22246e-012	2.42797e-012	2.68918e-012	
FineR158	-2.31322e-012	-2.1081e-012	-1.90323e-012	-1.43655e-012	-1.23156e-012	-1.02634e-012	-8.21076e-013	-3.54509e-013	-1.49249e-013	3.17458e-013	2.61411e-013	5.22745e-013	9.33585e-013	9.33527e-013	1.13895e-012	1.34454e-012	1.81128e-012	1.54996e-012	2.22246e-012	2.22246e-012	2.42797e-012	
FineR159	-2.31322e-012	-1.84657e-012	-1.90323e-012	-1.43655e-012	-1.43655e-012	-7.64877e-013	-1.02634e-012	-8.21076e-013	-1.49193e-013	3.17458e-013	2.61411e-013	2.61411e-013	9.33585e-013	1.19487e-012	1.60589e-012	1.34454e-012	1.81128e-012	2.017e-012	2.48374e-012	2.22246e-012	2.68918e-012	
FineR160	-2.05165e-012	-1.84691e-012	-1.6417e-012	-1.6417e-012	-1.23156e-012	-1.0263e-012	-5.5975e-013	-3.54443e-013	-1.49193e-013	5.60944e-014	5.22821e-013	5.22821e-013	9.33585e-013	9.33585e-013	1.60589e-012	1.60589e-012	2.0726e-012	2.017e-012	2.48374e-012	2.22246e-012	2.63386e-012	
MinCout:	0	FineR:	149	FineC:	130

