	CoarseC0	CoarseC10	CoarseC20	CoarseC30	CoarseC40	CoarseC50	CoarseC60	CoarseC70	CoarseC80	CoarseC90	CoarseC100	CoarseC110	CoarseC120	CoarseC130	CoarseC140	CoarseC150	CoarseC160	CoarseC170	CoarseC180	CoarseC190	CoarseC200	CoarseC210	CoarseC220	CoarseC230	CoarseC240	CoarseC250	
CoarseR0	-1.77758e-009	-1.76447e-009	-1.74688e-009	-1.72453e-009	-1.69832e-009	-1.66963e-009	-1.63787e-009	-1.60327e-009	-1.56606e-009	-1.5251e-009	-1.48117e-009	-1.42797e-009	-1.37549e-009	-1.3281e-009	-1.28278e-009	-1.24052e-009	-1.20064e-009	-1.16318e-009	-1.12833e-009	-1.09563e-009	-1.06502e-009	-1.03627e-009	-1.00957e-009	-9.84521e-010	-9.60816e-010	-9.3863e-010	
CoarseR10	-1.3681e-009	-1.35068e-009	-1.33007e-009	-1.30562e-009	-1.27877e-009	-1.24946e-009	-1.21653e-009	-1.18176e-009	-1.14411e-009	-1.10154e-009	-1.04999e-009	-1.00032e-009	-9.53891e-010	-9.1136e-010	-8.70617e-010	-8.3238e-010	-7.962e-010	-7.62958e-010	-7.31794e-010	-7.02894e-010	-6.75592e-010	-6.49881e-010	-6.2623e-010	-6.0389e-010	-5.82804e-010	-5.62834e-010	
CoarseR20	-1.1191e-009	-1.09932e-009	-1.07769e-009	-1.05252e-009	-1.02449e-009	-9.93941e-010	-9.60877e-010	-9.24492e-010	-8.8446e-010	-8.34024e-010	-7.84781e-010	-7.39474e-010	-6.96767e-010	-6.5679e-010	-6.19061e-010	-5.83906e-010	-5.50877e-010	-5.20686e-010	-4.92345e-010	-4.65682e-010	-4.41192e-010	-4.17642e-010	-3.95806e-010	-3.75096e-010	-3.55876e-010	-3.3765e-010	
CoarseR30	-9.52239e-010	-9.30625e-010	-9.0754e-010	-8.81182e-010	-8.52228e-010	-8.20793e-010	-7.86256e-010	-7.47964e-010	-7.00205e-010	-6.49774e-010	-6.04261e-010	-5.61337e-010	-5.20477e-010	-4.8303e-010	-4.47572e-010	-4.15028e-010	-3.84664e-010	-3.56182e-010	-3.29909e-010	-3.0555e-010	-2.8242e-010	-2.60755e-010	-2.40339e-010	-2.21267e-010	-2.03457e-010	-1.86329e-010	
CoarseR40	-8.31795e-010	-8.09118e-010	-7.84328e-010	-7.56864e-010	-7.26391e-010	-6.93725e-010	-6.57247e-010	-6.14049e-010	-5.62859e-010	-5.15241e-010	-4.7153e-010	-4.29795e-010	-3.90717e-010	-3.5537e-010	-3.2214e-010	-2.91311e-010	-2.62582e-010	-2.36407e-010	-2.11484e-010	-1.88411e-010	-1.66934e-010	-1.46234e-010	-1.27105e-010	-1.09302e-010	-9.23721e-011	-7.67191e-011	
CoarseR50	-7.41086e-010	-7.16299e-010	-6.91109e-010	-6.62188e-010	-6.30651e-010	-5.95832e-010	-5.57199e-010	-5.06445e-010	-4.57562e-010	-4.11485e-010	-3.69134e-010	-3.2873e-010	-2.91747e-010	-2.58255e-010	-2.26389e-010	-1.97312e-010	-1.69608e-010	-1.44666e-010	-1.21205e-010	-9.93635e-011	-7.8542e-011	-5.90708e-011	-4.11367e-011	-2.42462e-011	-8.6836e-012	6.28102e-012	
CoarseR60	-6.6914e-010	-6.43023e-010	-6.16078e-010	-5.86395e-010	-5.52887e-010	-5.16644e-010	-4.71766e-010	-4.20299e-010	-3.72736e-010	-3.27989e-010	-2.86056e-010	-2.47434e-010	-2.12026e-010	-1.79916e-010	-1.49456e-010	-1.21596e-010	-9.54899e-011	-7.12269e-011	-4.87348e-011	-2.75278e-011	-8.57101e-012	1.02433e-011	2.75369e-011	4.32812e-011	5.81944e-011	7.24326e-011	
CoarseR70	-6.10971e-010	-5.83304e-010	-5.55485e-010	-5.24038e-010	-4.89444e-010	-4.50662e-010	-3.99266e-010	-3.49482e-010	-3.03026e-010	-2.58311e-010	-2.17898e-010	-1.8065e-010	-1.46428e-010	-1.15739e-010	-8.67856e-011	-5.96033e-011	-3.42009e-011	-1.13031e-011	1.03963e-011	3.04358e-011	4.92863e-011	6.69507e-011	8.33397e-011	9.86727e-011	1.1311e-010	1.26306e-010	
CoarseR80	-5.63005e-010	-5.34098e-010	-5.04463e-010	-4.71961e-010	-4.35418e-010	-3.91994e-010	-3.38653e-010	-2.89752e-010	-2.43587e-010	-2.00015e-010	-1.60925e-010	-1.24909e-010	-9.17942e-011	-6.18815e-011	-3.37266e-011	-7.55449e-012	1.65561e-011	3.91389e-011	5.96587e-011	7.93555e-011	9.72548e-011	1.14539e-010	1.30303e-010	1.44729e-010	1.58321e-010	1.71307e-010	
CoarseR90	-5.21315e-010	-4.91743e-010	-4.6094e-010	-4.26589e-010	-3.8867e-010	-3.39493e-010	-2.86873e-010	-2.3904e-010	-1.92539e-010	-1.5008e-010	-1.11927e-010	-7.70015e-011	-4.47013e-011	-1.61464e-011	1.14586e-011	3.6801e-011	6.02876e-011	8.22312e-011	1.0237e-010	1.20962e-010	1.38684e-010	1.54881e-010	1.702e-010	1.84201e-010	1.97132e-010	2.09173e-010	
CoarseR100	-4.85492e-010	-4.54374e-010	-4.23279e-010	-3.87713e-010	-3.47199e-010	-2.93576e-010	-2.41874e-010	-1.93327e-010	-1.48224e-010	-1.06665e-010	-6.94911e-011	-3.56363e-011	-3.96037e-012	2.42445e-011	5.09633e-011	7.54172e-011	9.85412e-011	1.19386e-010	1.38937e-010	1.56873e-010	1.73728e-010	1.9e-010	2.04378e-010	2.17736e-010	2.30457e-010	2.42047e-010	
CoarseR110	-4.55083e-010	-4.22368e-010	-3.89639e-010	-3.52997e-010	-3.07744e-010	-2.53152e-010	-2.02166e-010	-1.53689e-010	-1.0919e-010	-6.85818e-011	-3.2399e-011	9.40474e-013	3.13542e-011	5.93324e-011	8.55828e-011	1.09399e-010	1.31688e-010	1.52356e-010	1.7126e-010	1.8901e-010	2.05227e-010	2.20775e-010	2.34556e-010	2.4744e-010	2.5944e-010	2.70592e-010	
CoarseR120	-4.27952e-010	-3.94545e-010	-3.60191e-010	-3.22055e-010	-2.71643e-010	-2.17299e-010	-1.66667e-010	-1.18029e-010	-7.49034e-011	-3.50002e-011	9.81182e-013	3.34357e-011	6.34263e-011	9.07467e-011	1.163e-010	1.39754e-010	1.61317e-010	1.81416e-010	2.0013e-010	2.17032e-010	2.33276e-010	2.47882e-010	2.61182e-010	2.74115e-010	2.85435e-010	2.95821e-010	
CoarseR130	-4.03159e-010	-3.68394e-010	-3.33008e-010	-2.93198e-010	-2.38907e-010	-1.85241e-010	-1.33753e-010	-8.62011e-011	-4.32473e-011	-4.13287e-012	3.03822e-011	6.27962e-011	9.2448e-011	1.19065e-010	1.43556e-010	1.66848e-010	1.88102e-010	2.07489e-010	2.26023e-010	2.42234e-010	2.58051e-010	2.72232e-010	2.85512e-010	2.9724e-010	3.08273e-010	3.18391e-010	
CoarseR140	-3.81665e-010	-3.45509e-010	-3.09332e-010	-2.6694e-010	-2.09369e-010	-1.56036e-010	-1.04313e-010	-5.75399e-011	-1.52839e-011	2.30467e-011	5.72356e-011	8.87474e-011	1.18056e-010	1.44404e-010	1.68643e-010	1.91131e-010	2.12213e-010	2.31418e-010	2.48801e-010	2.6552e-010	2.8041e-010	2.94085e-010	3.06678e-010	3.18364e-010	3.2887e-010	3.3849e-010	
CoarseR150	-3.61092e-010	-3.24041e-010	-2.86563e-010	-2.40681e-010	-1.82353e-010	-1.28871e-010	-7.74859e-011	-3.14224e-011	1.00499e-011	4.82693e-011	8.19181e-011	1.13086e-010	1.41558e-010	1.67349e-010	1.916e-010	2.13611e-010	2.34253e-010	2.533e-010	2.70481e-010	2.86003e-010	3.01083e-010	3.14326e-010	3.26403e-010	3.37557e-010	3.4756e-010	3.56657e-010	
CoarseR160	-3.42878e-010	-3.04572e-010	-2.65955e-010	-2.15765e-010	-1.57971e-010	-1.04185e-010	-5.2941e-011	-7.5106e-012	3.32573e-011	7.08327e-011	1.04137e-010	1.34952e-010	1.6305e-010	1.88771e-010	2.1223e-010	2.34098e-010	2.54324e-010	2.72914e-010	2.89608e-010	3.05169e-010	3.1956e-010	3.32522e-010	3.44057e-010	3.54965e-010	3.64665e-010	3.72936e-010	
CoarseR170	-3.26097e-010	-2.86965e-010	-2.46596e-010	-1.92644e-010	-1.3529e-010	-8.06933e-011	-3.03315e-011	1.46776e-011	5.52266e-011	9.21647e-011	1.25635e-010	1.55288e-010	1.83019e-010	2.08611e-010	2.31661e-010	2.53333e-010	2.73048e-010	2.91238e-010	3.0797e-010	3.22753e-010	3.36615e-010	3.49306e-010	3.60534e-010	3.70905e-010	3.80102e-010	3.88275e-010	
CoarseR180	-3.10074e-010	-2.70187e-010	-2.28545e-010	-1.71596e-010	-1.14092e-010	-5.926e-011	-9.7107e-012	3.47995e-011	7.4859e-011	1.11497e-010	1.44269e-010	1.74222e-010	2.01555e-010	2.26747e-010	2.49638e-010	2.70876e-010	2.90633e-010	3.07959e-010	3.24235e-010	3.39262e-010	3.5265e-010	3.65035e-010	3.76e-010	3.86049e-010	3.94396e-010	4.01994e-010	
CoarseR190	-2.95519e-010	-2.54484e-010	-2.12011e-010	-1.51857e-010	-9.43435e-011	-3.95887e-011	9.70139e-012	5.3761e-011	9.33114e-011	1.2938e-010	1.6197e-010	1.91648e-010	2.18462e-010	2.4313e-010	2.66404e-010	2.86879e-010	3.06444e-010	3.23888e-010	3.39833e-010	3.54366e-010	3.67699e-010	3.79332e-010	3.89963e-010	3.99152e-010	4.07673e-010	4.14387e-010	
CoarseR200	-2.82227e-010	-2.40205e-010	-1.95832e-010	-1.33839e-010	-7.53932e-011	-2.12762e-011	2.75501e-011	7.12617e-011	1.10634e-010	1.46332e-010	1.78872e-010	2.08354e-010	2.35232e-010	2.59253e-010	2.81981e-010	3.02595e-010	3.21431e-010	3.38796e-010	3.54509e-010	3.6849e-010	3.81534e-010	3.92827e-010	4.03111e-010	4.12031e-010	4.19665e-010	4.26323e-010	
CoarseR210	-2.69057e-010	-2.26299e-010	-1.78823e-010	-1.16885e-010	-5.84322e-011	-4.05452e-012	4.41962e-011	8.78708e-011	1.26588e-010	1.62387e-010	1.94024e-010	2.23582e-010	2.50366e-010	2.74426e-010	2.96364e-010	3.16738e-010	3.35523e-010	3.52167e-010	3.6788e-010	3.81821e-010	3.94037e-010	4.05535e-010	4.15287e-010	4.24077e-010	4.31069e-010	4.37107e-010	
CoarseR220	-2.57776e-010	-2.13227e-010	-1.62568e-010	-1.00614e-010	-4.15334e-011	1.19979e-011	5.99164e-011	1.02784e-010	1.4175e-010	1.77127e-010	2.08839e-010	2.37749e-010	2.64305e-010	2.88131e-010	3.09863e-010	3.30255e-010	3.49013e-010	3.65659e-010	3.80789e-010	3.93968e-010	4.06389e-010	4.1729e-010	4.26641e-010	4.34551e-010	4.41718e-010	4.47034e-010	
CoarseR230	-2.46315e-010	-2.01085e-010	-1.47883e-010	-8.58851e-011	-2.64629e-011	2.65177e-011	7.46342e-011	1.17087e-010	1.55936e-010	1.91176e-010	2.22681e-010	2.51206e-010	2.77795e-010	3.01032e-010	3.22631e-010	3.42919e-010	3.60972e-010	3.77342e-010	3.92452e-010	4.05868e-010	4.17992e-010	4.28487e-010	4.37286e-010	4.45373e-010	4.51571e-010	4.55962e-010	
CoarseR240	-2.35598e-010	-1.8953e-010	-1.33409e-010	-7.19036e-011	-1.24548e-011	4.08987e-011	8.84408e-011	1.30866e-010	1.69026e-010	2.04398e-010	2.35449e-010	2.63953e-010	2.89861e-010	3.13502e-010	3.35061e-010	3.55111e-010	3.72895e-010	3.8889e-010	4.03712e-010	4.16757e-010	4.28585e-010	4.38792e-010	4.47429e-010	4.54878e-010	4.60459e-010	4.64663e-010	
CoarseR250	-2.25217e-010	-1.78437e-010	-1.20241e-010	-5.85794e-011	1.48864e-012	5.40691e-011	1.01756e-010	1.43769e-010	1.81693e-010	2.16343e-010	2.47805e-010	2.76121e-010	3.02266e-010	3.2493e-010	3.46755e-010	3.66531e-010	3.84288e-010	4.00026e-010	4.14799e-010	4.27537e-010	4.3863e-010	4.48518e-010	4.57355e-010	4.63583e-010	4.68771e-010	4.72023e-010	
MinCout:	9.40474e-013	CoarseR:	110	CoarseC:	110

	CoarseC120	CoarseC121	CoarseC122	CoarseC123	CoarseC124	CoarseC125	CoarseC126	CoarseC127	CoarseC128	CoarseC129	CoarseC130	CoarseC131	CoarseC132	CoarseC133	CoarseC134	CoarseC135	CoarseC136	CoarseC137	CoarseC138	CoarseC139	CoarseC140	
CoarseR80	-9.19791e-011	-8.89034e-011	-8.58262e-011	-8.25586e-011	-7.96655e-011	-7.65717e-011	-7.32997e-011	-7.02156e-011	-6.71296e-011	-6.48859e-011	-6.18815e-011	-5.87924e-011	-5.62347e-011	-5.33345e-011	-5.00508e-011	-4.7228e-011	-4.45851e-011	-4.17595e-011	-3.93179e-011	-3.64895e-011	-3.39182e-011	
CoarseR81	-8.68777e-011	-8.40758e-011	-8.08082e-011	-7.79034e-011	-7.48225e-011	-7.15505e-011	-6.80032e-011	-6.5453e-011	-6.22827e-011	-6.01212e-011	-5.70324e-011	-5.42145e-011	-5.11236e-011	-4.84937e-011	-4.56618e-011	-4.25664e-011	-3.9741e-011	-3.71081e-011	-3.45396e-011	-3.14386e-011	-2.88027e-011	
CoarseR82	-8.182e-011	-7.87529e-011	-7.61237e-011	-7.27692e-011	-6.96875e-011	-6.64141e-011	-6.34016e-011	-6.05046e-011	-5.72264e-011	-5.52547e-011	-5.19736e-011	-4.90737e-011	-4.6243e-011	-4.34206e-011	-4.05182e-011	-3.77624e-011	-3.51271e-011	-3.22221e-011	-2.93921e-011	-2.70167e-011	-2.41836e-011	
CoarseR83	-7.72572e-011	-7.41782e-011	-7.10946e-011	-6.80129e-011	-6.51937e-011	-6.21089e-011	-5.85576e-011	-5.56614e-011	-5.26449e-011	-5.02184e-011	-4.73899e-011	-4.47609e-011	-4.16671e-011	-3.90361e-011	-3.59399e-011	-3.31828e-011	-3.02779e-011	-2.76404e-011	-2.52659e-011	-2.22402e-011	-1.97948e-011	
CoarseR84	-7.26706e-011	-6.95117e-011	-6.62398e-011	-6.31569e-011	-6.05254e-011	-5.72488e-011	-5.41616e-011	-5.08816e-011	-4.79739e-011	-4.60815e-011	-4.25254e-011	-3.98951e-011	-3.68005e-011	-3.39753e-011	-3.16049e-011	-2.85058e-011	-2.56757e-011	-2.33016e-011	-2.01983e-011	-1.75599e-011	-1.49857e-011	
CoarseR85	-6.80401e-011	-6.49666e-011	-6.18729e-011	-5.87891e-011	-5.59766e-011	-5.24254e-011	-4.9527e-011	-4.64377e-011	-4.34194e-011	-4.09895e-011	-3.81601e-011	-3.55288e-011	-3.24325e-011	-2.98703e-011	-2.67712e-011	-2.42045e-011	-2.12975e-011	-1.84644e-011	-1.60193e-011	-1.3446e-011	-1.08053e-011	
CoarseR86	-6.29472e-011	-6.0052e-011	-5.69683e-011	-5.38831e-011	-5.07938e-011	-4.79719e-011	-4.44183e-011	-4.15992e-011	-3.85066e-011	-3.60686e-011	-3.37022e-011	-3.0606e-011	-2.75088e-011	-2.46806e-011	-2.21149e-011	-1.92079e-011	-1.63748e-011	-1.38037e-011	-1.11635e-011	-8.52248e-012	-5.41416e-012	
CoarseR87	-5.86041e-011	-5.54446e-011	-5.26232e-011	-4.95368e-011	-4.6449e-011	-4.36239e-011	-4.0069e-011	-3.72485e-011	-3.41547e-011	-3.21793e-011	-2.93492e-011	-2.62569e-011	-2.33468e-011	-2.05172e-011	-1.7492e-011	-1.49235e-011	-1.20145e-011	-9.3724e-012	-6.99566e-012	-3.9616e-012	-1.51288e-012	
CoarseR88	-5.38959e-011	-5.12719e-011	-4.77212e-011	-4.46337e-011	-4.20064e-011	-3.86446e-011	-3.56272e-011	-3.2612e-011	-2.95169e-011	-2.7348e-011	-2.47098e-011	-2.18045e-011	-1.90471e-011	-1.60682e-011	-1.33061e-011	-1.03973e-011	-7.56278e-012	-5.18508e-012	-2.54288e-012	4.92844e-013	2.6773e-012	
CoarseR89	-4.92329e-011	-4.66884e-011	-4.3597e-011	-4.05081e-011	-3.76079e-011	-3.43234e-011	-3.12304e-011	-2.8136e-011	-2.51137e-011	-2.29439e-011	-2.00384e-011	-1.72087e-011	-1.45684e-011	-1.1541e-011	-8.89866e-012	-6.25727e-012	-3.22441e-012	-7.76793e-013	1.86939e-012	4.7116e-012	6.82328e-012	
CoarseR90	-4.48896e-011	-4.22635e-011	-3.91751e-011	-3.60826e-011	-3.29937e-011	-2.99758e-011	-2.68788e-011	-2.40512e-011	-2.09536e-011	-1.85148e-011	-1.58763e-011	-1.32392e-011	-9.9422e-012	-7.37504e-012	-4.7344e-012	-1.89456e-012	7.48154e-013	3.5891e-012	6.23391e-012	8.81158e-012	1.12627e-011	
CoarseR91	-4.09867e-011	-3.80873e-011	-3.49976e-011	-3.19826e-011	-2.88895e-011	-2.59864e-011	-2.26966e-011	-1.98685e-011	-1.67682e-011	-1.45966e-011	-1.17653e-011	-8.85699e-012	-5.75322e-012	-3.38089e-012	-5.43335e-013	2.02834e-012	4.94109e-012	7.58588e-012	1.01625e-011	1.28095e-011	1.56566e-011	
CoarseR92	-3.63216e-011	-3.3693e-011	-3.0602e-011	-2.75859e-011	-2.48769e-011	-2.15872e-011	-1.82956e-011	-1.53899e-011	-1.26349e-011	-1.03873e-011	-7.28401e-012	-4.44982e-012	-1.88269e-012	1.02838e-012	3.67113e-012	6.51172e-012	8.88834e-012	1.17323e-011	1.41115e-011	1.72264e-011	1.98757e-011	
CoarseR93	-3.2442e-011	-2.95408e-011	-2.65257e-011	-2.34317e-011	-2.07984e-011	-1.72363e-011	-1.41381e-011	-1.1772e-011	-8.4755e-012	-6.49718e-012	-3.19766e-012	-5.56627e-013	2.0846e-012	4.9236e-012	7.49519e-012	1.04091e-011	1.32531e-011	1.59006e-011	1.82803e-011	2.1129e-011	2.37796e-011	
CoarseR94	-2.85397e-011	-2.5175e-011	-2.23533e-011	-1.92541e-011	-1.64279e-011	-1.32515e-011	-1.02282e-011	-7.39694e-012	-4.48815e-012	-2.11901e-012	7.16891e-013	3.163e-012	6.46724e-012	9.1117e-012	1.16839e-011	1.45283e-011	1.74442e-011	1.9825e-011	2.24749e-011	2.5523e-011	2.77086e-011	
CoarseR95	-2.41501e-011	-2.13275e-011	-1.84232e-011	-1.51315e-011	-1.26913e-011	-9.66869e-012	-6.29523e-012	-3.26894e-012	-1.62898e-013	1.81672e-012	4.65189e-012	7.29541e-012	1.01365e-011	1.29764e-011	1.56231e-011	1.87366e-011	2.11149e-011	2.36962e-011	2.63447e-011	2.91968e-011	3.13853e-011	
CoarseR96	-2.00098e-011	-1.73764e-011	-1.40847e-011	-1.11824e-011	-8.81872e-012	-5.52191e-012	-2.41937e-012	6.86884e-013	3.52294e-012	5.969e-012	8.34046e-012	1.11812e-011	1.40955e-011	1.69394e-011	1.9316e-011	2.1965e-011	2.48101e-011	2.76607e-011	3.0046e-011	3.28963e-011	3.55511e-011	
CoarseR97	-1.63098e-011	-1.32134e-011	-1.0307e-011	-7.20797e-012	-4.64759e-012	-1.54533e-012	1.7551e-012	4.66613e-012	7.49957e-012	9.95058e-012	1.23225e-011	1.51649e-011	1.80802e-011	2.06533e-011	2.33027e-011	2.64191e-011	2.87988e-011	3.14512e-011	3.43046e-011	3.6688e-011	3.95448e-011	
CoarseR98	-1.23148e-011	-9.49262e-012	-6.11873e-012	-3.09652e-012	-6.53595e-013	2.45301e-012	5.7546e-012	8.31802e-012	1.14264e-011	1.36785e-011	1.65205e-011	1.91676e-011	2.20078e-011	2.46571e-011	2.75057e-011	2.98847e-011	3.27368e-011	3.51185e-011	3.7974e-011	4.06303e-011	4.30157e-011	
CoarseR99	-8.19122e-012	-5.5539e-012	-2.4533e-012	3.73497e-013	3.09067e-012	6.123e-012	9.49844e-012	1.20652e-011	1.51746e-011	1.73547e-011	2.04669e-011	2.31154e-011	2.59626e-011	2.83398e-011	3.1259e-011	3.38375e-011	3.64916e-011	3.93469e-011	4.17304e-011	4.45891e-011	4.65096e-011	
CoarseR100	-4.69882e-012	-1.59834e-012	1.31116e-012	4.61154e-012	7.25343e-012	1.03596e-011	1.33896e-011	1.60353e-011	1.91463e-011	2.11312e-011	2.42445e-011	2.68168e-011	2.99341e-011	3.23117e-011	3.51638e-011	3.78182e-011	4.03998e-011	4.30566e-011	4.55146e-011	4.81013e-011	5.07612e-011	
MinCout:	-1.62898e-013	CoarseR:	95	CoarseC:	128

	FineC0	FineC10	FineC20	FineC30	FineC40	FineC50	FineC60	FineC70	FineC80	FineC90	FineC100	FineC110	FineC120	FineC130	FineC140	FineC150	FineC160	FineC170	FineC180	FineC190	FineC200	FineC210	FineC220	FineC230	FineC240	FineC250	
FineR0	-2.23889e-010	-1.88294e-010	-1.64829e-010	-1.47014e-010	-1.32035e-010	-1.2016e-010	-1.10752e-010	-1.02642e-010	-9.55585e-011	-8.97381e-011	-8.44055e-011	-7.98053e-011	-7.58539e-011	-7.21716e-011	-6.86904e-011	-6.55892e-011	-6.34798e-011	-6.08396e-011	-5.88534e-011	-5.66741e-011	-5.49571e-011	-5.31623e-011	-5.11856e-011	-4.98531e-011	-4.87914e-011	-4.75365e-011	
FineR10	-1.91202e-010	-1.56049e-010	-1.32844e-010	-1.15201e-010	-1.01108e-010	-8.93075e-011	-8.00814e-011	-7.1771e-011	-6.49508e-011	-5.9041e-011	-5.3976e-011	-4.94489e-011	-4.54933e-011	-4.19983e-011	-3.87015e-011	-3.55957e-011	-3.30206e-011	-3.05779e-011	-2.86584e-011	-2.6475e-011	-2.47545e-011	-2.31622e-011	-2.13672e-011	-2.01108e-011	-1.87788e-011	-1.74542e-011	
FineR20	-1.76902e-010	-1.41907e-010	-1.19148e-010	-1.01494e-010	-8.72231e-011	-7.57902e-011	-6.63717e-011	-5.82491e-011	-5.14252e-011	-4.55934e-011	-4.05259e-011	-3.59174e-011	-3.19611e-011	-2.80066e-011	-2.51661e-011	-2.21342e-011	-1.99488e-011	-1.75711e-011	-1.512e-011	-1.34e-011	-1.16068e-011	-9.88445e-012	-7.89689e-012	-6.56598e-012	-5.3076e-012	-4.2442e-012	
FineR30	-1.6875e-010	-1.34032e-010	-1.11092e-010	-9.36182e-011	-7.9068e-011	-6.7633e-011	-5.84858e-011	-5.03606e-011	-4.3801e-011	-3.76195e-011	-3.28973e-011	-2.84064e-011	-2.42571e-011	-2.05668e-011	-1.72661e-011	-1.46929e-011	-1.22428e-011	-9.39951e-012	-7.2155e-012	-5.69219e-012	-3.70139e-012	-2.17643e-012	-4.52091e-013	1.07094e-012	2.40218e-012	3.46558e-012	
FineR40	-1.63556e-010	-1.28815e-010	-1.05961e-010	-8.83953e-011	-7.43028e-011	-6.24047e-011	-5.33626e-011	-4.55102e-011	-3.87578e-011	-3.27695e-011	-2.78536e-011	-2.34363e-011	-1.94798e-011	-1.57173e-011	-1.22207e-011	-9.64812e-012	-7.00146e-012	-4.54971e-012	-2.36557e-012	-4.48604e-013	1.07571e-012	3.06786e-012	4.59384e-012	5.92143e-012	7.25225e-012	8.5121e-012	
FineR50	-1.5947e-010	-1.25301e-010	-1.01983e-010	-8.47845e-011	-7.05026e-011	-5.90657e-011	-5.01042e-011	-4.17098e-011	-3.51507e-011	-2.93164e-011	-2.39765e-011	-1.98301e-011	-1.57548e-011	-1.21858e-011	-9.15114e-012	-6.04206e-012	-3.73553e-012	-1.28342e-012	9.01172e-013	2.89114e-012	4.4154e-012	6.13675e-012	7.9314e-012	9.45807e-012	1.05207e-011	1.185e-011	
FineR60	-1.57075e-010	-1.22626e-010	-9.95834e-011	-8.21082e-011	-6.7826e-011	-5.64698e-011	-4.69699e-011	-3.93036e-011	-3.25503e-011	-2.68298e-011	-2.15684e-011	-1.74215e-011	-1.30022e-011	-9.50637e-012	-6.47167e-012	-3.63136e-012	-9.8535e-013	1.12782e-012	3.58138e-012	5.56784e-012	7.29213e-012	9.0839e-012	1.0413e-011	1.2139e-011	1.34681e-011	1.45314e-011	
FineR70	-1.5454e-010	-1.20266e-010	-9.74993e-011	-7.9844e-011	-6.6017e-011	-5.45792e-011	-4.51595e-011	-3.72212e-011	-3.0471e-011	-2.45577e-011	-1.9488e-011	-1.51474e-011	-1.0995e-011	-7.69361e-012	-4.39104e-012	-1.81817e-012	1.02512e-012	3.20995e-012	5.39498e-012	7.38314e-012	9.10599e-012	1.08981e-011	1.24266e-011	1.39534e-011	1.52828e-011	1.63461e-011	
FineR80	-1.52794e-010	-1.1852e-010	-9.57533e-011	-7.85512e-011	-6.4271e-011	-5.28331e-011	-4.36058e-011	-3.54747e-011	-2.8915e-011	-2.30026e-011	-1.80098e-011	-1.35926e-011	-9.63743e-012	-5.94633e-012	-3.10716e-012	-2.6648e-013	2.57683e-012	4.76031e-012	6.87415e-012	8.93432e-012	1.04584e-011	1.24494e-011	1.39752e-011	1.52366e-011	1.67641e-011	1.80944e-011	
FineR90	-1.51856e-010	-1.17303e-010	-9.47261e-011	-7.71567e-011	-6.27837e-011	-5.13467e-011	-4.21978e-011	-3.45311e-011	-2.74305e-011	-2.17876e-011	-1.6526e-011	-1.2379e-011	-8.42266e-012	-4.73161e-012	-1.62441e-012	1.14402e-012	3.79152e-012	6.17127e-012	8.62483e-012	1.01481e-011	1.23357e-011	1.3396e-011	1.53887e-011	1.69154e-011	1.82458e-011	1.9309e-011	
FineR100	-1.50446e-010	-1.16171e-010	-9.31266e-011	-7.59272e-011	-6.21098e-011	-5.02082e-011	-4.10583e-011	-3.31194e-011	-2.62893e-011	-2.05707e-011	-1.53836e-011	-1.09664e-011	-7.0847e-012	-3.58799e-012	-4.80382e-013	2.82538e-012	5.20432e-012	7.19077e-012	9.37549e-012	1.12936e-011	1.32847e-011	1.48098e-011	1.63357e-011	1.78619e-011	1.9192e-011	2.05224e-011	
FineR110	-1.49126e-010	-1.15483e-010	-9.27164e-011	-7.4788e-011	-6.09617e-011	-4.95242e-011	-4.0292e-011	-3.2166e-011	-2.56065e-011	-1.99635e-011	-1.48944e-011	-1.00894e-011	-6.40239e-012	-2.63771e-012	3.96851e-013	3.50677e-012	5.88451e-012	8.33621e-012	1.04511e-011	1.23698e-011	1.44301e-011	1.59551e-011	1.74809e-011	1.87425e-011	2.00698e-011	2.11329e-011	
FineR120	-1.48413e-010	-1.14416e-010	-9.13742e-011	-7.37186e-011	-5.98916e-011	-4.87261e-011	-3.94135e-011	-3.1094e-011	-2.45341e-011	-1.88153e-011	-1.35519e-011	-9.48065e-012	-5.52391e-012	-1.9547e-012	1.27538e-012	4.11663e-012	6.76316e-012	8.94649e-012	1.11314e-011	1.33178e-011	1.48418e-011	1.6566e-011	1.80919e-011	1.9689e-011	2.09485e-011	2.22791e-011	
FineR130	-1.48091e-010	-1.13348e-010	-9.07687e-011	-7.35681e-011	-5.91963e-011	-4.8033e-011	-3.86132e-011	-3.0486e-011	-2.41167e-011	-1.80116e-011	-1.32121e-011	-8.7955e-012	-4.645e-012	-1.14899e-012	2.35047e-012	4.99515e-012	7.37399e-012	1.00223e-011	1.22073e-011	1.37305e-011	1.57213e-011	1.72461e-011	1.89714e-011	2.02303e-011	2.18281e-011	2.30886e-011	
FineR140	-1.47469e-010	-1.12917e-010	-8.98768e-011	-7.27706e-011	-5.86706e-011	-4.72324e-011	-3.82706e-011	-3.01436e-011	-2.33131e-011	-1.73994e-011	-1.24071e-011	-7.98997e-012	-4.10756e-012	-8.07016e-013	2.76486e-012	5.60567e-012	7.98438e-012	1.06325e-011	1.28174e-011	1.4539e-011	1.62598e-011	1.79842e-011	1.95809e-011	2.08398e-011	2.21697e-011	2.35005e-011	
FineR150	-1.46843e-010	-1.12384e-010	-8.98071e-011	-7.18792e-011	-5.80538e-011	-4.68893e-011	-3.71965e-011	-2.953e-011	-2.27763e-011	-1.67868e-011	-1.19879e-011	-7.45238e-012	-3.49581e-012	2.69055e-013	3.30345e-012	5.94794e-012	8.79136e-012	1.09747e-011	1.31596e-011	1.51493e-011	1.68701e-011	1.85943e-011	1.9923e-011	2.17173e-011	2.27795e-011	2.38425e-011	
FineR160	-1.46312e-010	-1.11762e-010	-8.92734e-011	-7.17991e-011	-5.75184e-011	-4.60808e-011	-3.73126e-011	-2.89928e-011	-2.24329e-011	-1.64436e-011	-1.14502e-011	-7.10959e-012	-3.1531e-012	8.0746e-013	3.64605e-012	6.48661e-012	9.13394e-012	1.15137e-011	1.32337e-011	1.56882e-011	1.72121e-011	1.89363e-011	2.04624e-011	2.17917e-011	2.33188e-011	2.46496e-011	
FineR170	-1.45963e-010	-1.11417e-010	-8.89274e-011	-7.12736e-011	-5.71736e-011	-4.60089e-011	-3.65041e-011	-2.83781e-011	-2.18955e-011	-1.6176e-011	-1.1107e-011	-6.7655e-012	-2.34534e-012	9.54595e-013	3.98834e-012	6.82925e-012	9.40436e-012	1.18562e-011	1.40412e-011	1.62277e-011	1.77517e-011	1.9476e-011	2.0802e-011	2.25991e-011	2.36614e-011	2.49218e-011	
FineR180	-1.45151e-010	-1.11157e-010	-8.8295e-011	-7.06441e-011	-5.69103e-011	-4.56581e-011	-3.59668e-011	-2.83014e-011	-2.17428e-011	-1.53678e-011	-1.05687e-011	-6.15259e-012	-2.07601e-012	1.22428e-012	4.52743e-012	7.36817e-012	9.74598e-012	1.21975e-011	1.45805e-011	1.65703e-011	1.82912e-011	2.00155e-011	2.10738e-011	2.28712e-011	2.40006e-011	2.52641e-011	
FineR190	-1.44894e-010	-1.10622e-010	-8.81315e-011	-7.03821e-011	-5.65574e-011	-4.51209e-011	-3.5701e-011	-2.77635e-011	-2.10106e-011	-1.5292e-011	-1.00302e-011	-5.8835e-012	-1.92766e-012	1.76318e-012	5.06647e-012	7.90773e-012	1.04828e-011	1.24685e-011	1.49215e-011	1.6643e-011	1.86338e-011	2.01586e-011	2.18839e-011	2.29427e-011	2.45405e-011	2.56032e-011	
FineR200	-1.44807e-010	-1.1026e-010	-8.74974e-011	-7.01095e-011	-5.60203e-011	-4.47698e-011	-3.53511e-011	-2.76863e-011	-2.06665e-011	-1.50238e-011	-9.9549e-012	-5.53914e-012	-1.46282e-012	1.83716e-012	5.33652e-012	7.71202e-012	1.08247e-011	1.30075e-011	1.51925e-011	1.7111e-011	1.89029e-011	2.04275e-011	2.22239e-011	2.34827e-011	2.48131e-011	2.61433e-011	
FineR210	-1.4455e-010	-1.09812e-010	-8.74136e-011	-6.98463e-011	-5.56666e-011	-4.43118e-011	-3.53565e-011	-2.72256e-011	-2.03958e-011	-1.44074e-011	-9.49131e-012	-5.07486e-012	-1.11914e-012	2.37635e-012	5.67946e-012	8.25146e-012	1.08978e-011	1.30804e-011	1.52651e-011	1.71833e-011	1.94428e-011	2.09675e-011	2.22253e-011	2.35543e-011	2.50851e-011	2.64122e-011	
FineR220	-1.44107e-010	-1.09726e-010	-8.66876e-011	-6.97643e-011	-5.56753e-011	-4.40462e-011	-3.4735e-011	-2.66873e-011	-2.0128e-011	-1.42146e-011	-9.3406e-012	-4.80529e-012	-8.49135e-013	2.84204e-012	5.94972e-012	8.52112e-012	1.11685e-011	1.33519e-011	1.58049e-011	1.77233e-011	1.9515e-011	2.12392e-011	2.27648e-011	2.40236e-011	2.56216e-011	2.64837e-011	
FineR230	-1.43737e-010	-1.09466e-010	-8.67003e-011	-6.95009e-011	-5.51297e-011	-4.39669e-011	-3.42753e-011	-2.66098e-011	-2.00512e-011	-1.38683e-011	-8.87679e-012	-4.46069e-012	-5.79004e-013	2.91627e-012	5.95027e-012	9.06025e-012	1.15102e-011	1.38897e-011	1.58056e-011	1.80638e-011	1.95189e-011	2.13114e-011	2.28368e-011	2.43629e-011	2.5425e-011	2.69535e-011	
FineR240	-1.43461e-010	-1.09191e-010	-8.66163e-011	-6.86892e-011	-5.51383e-011	-4.37011e-011	-3.41969e-011	-2.63425e-011	-1.95891e-011	-1.38703e-011	-9.07134e-012	-4.26599e-012	-3.09209e-013	3.18632e-012	6.02423e-012	9.13389e-012	1.15116e-011	1.41608e-011	1.60769e-011	1.80646e-011	2.00561e-011	2.15807e-011	2.3106e-011	2.43676e-011	2.59624e-011	2.72259e-011	
FineR250	-1.43203e-010	-1.08827e-010	-8.63426e-011	-6.86899e-011	-5.45925e-011	-4.31567e-011	-3.41969e-011	-2.6261e-011	-1.95124e-011	-1.35995e-011	-8.53092e-012	-4.19079e-012	-3.94602e-014	3.45593e-012	6.56295e-012	9.60084e-012	1.19782e-011	1.44298e-011	1.63465e-011	1.83362e-011	2.00569e-011	2.15815e-011	2.35754e-011	2.49044e-011	2.59665e-011	2.74942e-011	
MinCout:	-3.94602e-014	FineR:	250	FineC:	120

	FineC120	FineC121	FineC122	FineC123	FineC124	FineC125	FineC126	FineC127	FineC128	FineC129	FineC130	FineC131	FineC132	FineC133	FineC134	FineC135	FineC136	FineC137	FineC138	FineC139	FineC140	
FineR140	-3.8382e-012	-3.8382e-012	-3.17848e-012	-2.9829e-012	-2.78774e-012	-2.32299e-012	-1.85849e-012	-1.66293e-012	-1.19822e-012	-5.38011e-013	-5.37936e-013	-1.46631e-013	-1.46631e-013	5.13901e-013	9.7863e-013	1.44354e-012	1.44354e-012	1.5665e-012	2.03129e-012	2.30019e-012	2.69229e-012	
FineR141	-4.03372e-012	-3.64323e-012	-3.17848e-012	-2.98304e-012	-2.51861e-012	-2.0539e-012	-2.12769e-012	-1.66293e-012	-1.00273e-012	-8.07128e-013	-2.68968e-013	1.22349e-013	1.22349e-013	5.13901e-013	5.13901e-013	9.7863e-013	1.63932e-012	1.8354e-012	2.30015e-012	2.30019e-012	2.69229e-012	
FineR142	-3.76442e-012	-3.37404e-012	-3.17848e-012	-2.98337e-012	-2.51861e-012	-2.2494e-012	-1.85859e-012	-1.39387e-012	-7.33689e-013	-8.07128e-013	-5.38011e-013	-7.33156e-014	3.18113e-013	7.82856e-013	7.82856e-013	1.17458e-012	1.44354e-012	1.8354e-012	2.10433e-012	2.30015e-012	2.76526e-012	
FineR143	-4.03372e-012	-3.37404e-012	-3.1786e-012	-2.7142e-012	-2.51861e-012	-2.51861e-012	-1.85859e-012	-1.19842e-012	-7.33689e-013	-5.38109e-013	-7.33648e-014	-7.33648e-014	3.18113e-013	5.87142e-013	9.78756e-013	1.24775e-012	1.44351e-012	2.10431e-012	2.3732e-012	2.30015e-012	2.76526e-012	
FineR144	-3.76451e-012	-3.10484e-012	-3.10484e-012	-2.90932e-012	-2.7142e-012	-2.24948e-012	-1.58948e-012	-1.39409e-012	-1.00283e-012	-7.33689e-013	-7.33648e-014	-7.33648e-014	1.2235e-013	5.87106e-013	1.24772e-012	1.24775e-012	1.63954e-012	1.9085e-012	2.30048e-012	2.56902e-012	3.0341e-012	
FineR145	-3.76451e-012	-3.37415e-012	-3.10484e-012	-2.44503e-012	-2.44503e-012	-2.05422e-012	-1.58948e-012	-1.39409e-012	-9.29342e-013	-4.64695e-013	-2.69055e-013	1.22289e-013	1.2235e-013	8.56098e-013	1.24772e-012	1.24772e-012	1.90849e-012	2.1774e-012	2.37321e-012	2.56939e-012	2.76525e-012	
FineR146	-4.03435e-012	-3.56957e-012	-2.90977e-012	-2.90977e-012	-2.44503e-012	-1.78508e-012	-1.78508e-012	-1.39409e-012	-9.29342e-013	-4.64646e-013	-2.69055e-013	1.95653e-013	8.56098e-013	5.87106e-013	1.24772e-012	1.24772e-012	1.90849e-012	2.1774e-012	2.37321e-012	2.83827e-012	2.76525e-012	
FineR147	-3.76508e-012	-3.30034e-012	-2.64057e-012	-2.64057e-012	-2.44503e-012	-1.78508e-012	-1.78508e-012	-1.12497e-012	-4.6472e-013	-5.38184e-013	-2.69055e-013	3.9138e-013	6.60396e-013	8.56098e-013	1.05196e-012	1.51669e-012	1.90849e-012	2.1774e-012	2.37321e-012	2.5694e-012	3.03413e-012	
FineR148	-3.95997e-012	-3.30034e-012	-2.83565e-012	-2.4451e-012	-2.17587e-012	-1.78508e-012	-1.51592e-012	-1.32038e-012	-9.29342e-013	-4.6472e-013	0	6.60409e-013	3.9138e-013	8.56098e-013	1.05196e-012	1.51669e-012	2.17743e-012	2.17743e-012	2.64246e-012	2.5694e-012	3.03455e-012	
FineR149	-3.49581e-012	-3.3004e-012	-3.10532e-012	-2.64057e-012	-2.17587e-012	-1.98065e-012	-1.32058e-012	-8.55855e-013	-4.64746e-013	-4.6472e-013	0	1.95678e-013	6.60409e-013	8.56223e-013	1.32097e-012	1.71269e-012	1.71269e-012	2.17743e-012	2.64246e-012	2.83831e-012	3.10715e-012	
FineR150	-3.49581e-012	-3.3004e-012	-2.83607e-012	-2.37136e-012	-2.17619e-012	-1.98065e-012	-1.58979e-012	-1.05143e-012	-5.86774e-013	-1.95629e-013	-7.34382e-014	1.95678e-013	6.60409e-013	8.56223e-013	1.32097e-012	1.78588e-012	1.98167e-012	2.64252e-012	2.64246e-012	3.10723e-012	3.30345e-012	
FineR151	-3.22655e-012	-3.03114e-012	-2.83607e-012	-2.64062e-012	-2.17619e-012	-1.71147e-012	-1.05142e-012	-1.12501e-012	-6.60362e-013	-1.95629e-013	7.34141e-014	4.64745e-013	6.60409e-013	6.60409e-013	1.58997e-012	1.51691e-012	1.98167e-012	2.44668e-012	2.64252e-012	2.91138e-012	3.03458e-012	
FineR152	-3.49586e-012	-3.03156e-012	-2.56683e-012	-2.17622e-012	-2.17619e-012	-1.71147e-012	-1.05142e-012	-1.05142e-012	-3.91233e-013	-1.22165e-013	0	4.64745e-013	4.64745e-013	1.12526e-012	1.58997e-012	1.78593e-012	1.98167e-012	2.17775e-012	2.64252e-012	3.10762e-012	3.30351e-012	
FineR153	-3.22702e-012	-3.03156e-012	-2.56683e-012	-2.37171e-012	-1.90697e-012	-1.71172e-012	-1.24697e-012	-1.05142e-012	-3.91233e-013	-3.91233e-013	2.69104e-013	7.33811e-013	4.64745e-013	1.12526e-012	1.59015e-012	1.78593e-012	2.05486e-012	2.44674e-012	2.64252e-012	2.64252e-012	3.30351e-012	
FineR154	-3.49586e-012	-3.03156e-012	-2.56683e-012	-2.56683e-012	-1.90697e-012	-1.71147e-012	-1.51616e-012	-7.82269e-013	-3.91233e-013	-3.91233e-013	2.69104e-013	4.6477e-013	9.29588e-013	1.39431e-012	1.66323e-012	2.05495e-012	2.25092e-012	2.44674e-012	2.71563e-012	3.1077e-012	3.37655e-012	
FineR155	-3.22702e-012	-3.03159e-012	-2.56721e-012	-2.10246e-012	-1.90696e-012	-1.44249e-012	-1.24697e-012	-8.5598e-013	-3.91209e-013	7.34875e-014	2.69104e-013	2.69104e-013	7.33811e-013	1.1253e-012	1.59022e-012	2.05495e-012	2.05495e-012	2.44674e-012	3.18079e-012	3.1077e-012	3.37655e-012	
FineR156	-3.42196e-012	-2.76228e-012	-2.56684e-012	-2.10246e-012	-1.90696e-012	-1.44249e-012	-1.24697e-012	-5.86813e-013	-3.91209e-013	7.34875e-014	5.38208e-013	5.38133e-013	9.29588e-013	9.29588e-013	1.59022e-012	2.05495e-012	2.25099e-012	2.71573e-012	2.71573e-012	3.1077e-012	3.37655e-012	
FineR157	-3.15265e-012	-2.76227e-012	-2.493e-012	-1.8332e-012	-1.90725e-012	-1.44249e-012	-9.77775e-013	-3.17647e-013	-3.17647e-013	1.47025e-013	7.34875e-014	5.38208e-013	1.19867e-012	1.19867e-012	1.85927e-012	2.12819e-012	2.25099e-012	2.51991e-012	2.91192e-012	3.18079e-012	3.37667e-012	
FineR158	-2.9577e-012	-2.9577e-012	-2.29792e-012	-2.10243e-012	-1.8332e-012	-1.44249e-012	-9.77775e-013	-7.82369e-013	-3.17647e-013	3.42629e-013	3.42629e-013	5.38208e-013	1.19867e-012	1.19867e-012	1.85927e-012	1.85927e-012	2.52002e-012	2.51991e-012	2.91192e-012	3.18079e-012	3.57299e-012	
FineR159	-2.95768e-012	-2.68839e-012	-2.29792e-012	-2.29792e-012	-1.63798e-012	-1.17326e-012	-1.17326e-012	-5.13166e-013	-1.22105e-013	3.42629e-013	3.42629e-013	1.00305e-012	1.00305e-012	1.66362e-012	1.66351e-012	1.85927e-012	2.52002e-012	2.52002e-012	2.98473e-012	2.91192e-012	3.64563e-012	
FineR160	-3.15262e-012	-2.68839e-012	-2.02862e-012	-2.02862e-012	-1.63798e-012	-1.17326e-012	-1.17326e-012	-5.13166e-013	-3.17647e-013	3.42629e-013	6.11646e-013	1.00305e-012	1.00305e-012	1.66362e-012	1.93256e-012	2.12833e-012	2.32421e-012	2.52002e-012	2.7889e-012	3.18092e-012	3.84197e-012	
MinCout:	0	FineR:	148	FineC:	130

