	CoarseC0	CoarseC10	CoarseC20	CoarseC30	CoarseC40	CoarseC50	CoarseC60	CoarseC70	CoarseC80	CoarseC90	CoarseC100	CoarseC110	CoarseC120	CoarseC130	CoarseC140	CoarseC150	CoarseC160	CoarseC170	CoarseC180	CoarseC190	CoarseC200	CoarseC210	CoarseC220	CoarseC230	CoarseC240	CoarseC250	
CoarseR0	-1.78428e-009	-1.77175e-009	-1.75429e-009	-1.73263e-009	-1.7079e-009	-1.67883e-009	-1.64799e-009	-1.61427e-009	-1.57757e-009	-1.53803e-009	-1.49507e-009	-1.44295e-009	-1.39016e-009	-1.34264e-009	-1.29749e-009	-1.2554e-009	-1.21533e-009	-1.17829e-009	-1.14327e-009	-1.11072e-009	-1.0804e-009	-1.05183e-009	-1.02534e-009	-1.00027e-009	-9.76485e-010	-9.54562e-010	
CoarseR10	-1.37325e-009	-1.35663e-009	-1.33671e-009	-1.31333e-009	-1.28724e-009	-1.25797e-009	-1.22679e-009	-1.19245e-009	-1.15539e-009	-1.11462e-009	-1.06427e-009	-1.01427e-009	-9.67386e-010	-9.24932e-010	-8.84338e-010	-8.46007e-010	-8.09945e-010	-7.76758e-010	-7.45367e-010	-7.16383e-010	-6.89292e-010	-6.64245e-010	-6.40423e-010	-6.17861e-010	-5.96649e-010	-5.7689e-010	
CoarseR20	-1.12467e-009	-1.10639e-009	-1.08525e-009	-1.06118e-009	-1.03345e-009	-1.00375e-009	-9.71651e-010	-9.36455e-010	-8.9783e-010	-8.48892e-010	-7.99759e-010	-7.5387e-010	-7.10745e-010	-6.71428e-010	-6.32909e-010	-5.97595e-010	-5.64644e-010	-5.34453e-010	-5.06037e-010	-4.79402e-010	-4.54628e-010	-4.31343e-010	-4.09539e-010	-3.89173e-010	-3.70145e-010	-3.51675e-010	
CoarseR30	-9.56546e-010	-9.3606e-010	-9.13319e-010	-8.88205e-010	-8.59846e-010	-8.288e-010	-7.9511e-010	-7.58439e-010	-7.12801e-010	-6.62696e-010	-6.16638e-010	-5.73656e-010	-5.32682e-010	-4.94805e-010	-4.59337e-010	-4.2635e-010	-3.96116e-010	-3.67934e-010	-3.41374e-010	-3.16725e-010	-2.93898e-010	-2.72379e-010	-2.51707e-010	-2.3301e-010	-2.14886e-010	-1.98299e-010	
CoarseR40	-8.36033e-010	-8.14216e-010	-7.90188e-010	-7.63925e-010	-7.34128e-010	-7.01868e-010	-6.66709e-010	-6.26261e-010	-5.75001e-010	-5.27451e-010	-4.83493e-010	-4.42382e-010	-4.02624e-010	-3.67004e-010	-3.33638e-010	-3.02544e-010	-2.74151e-010	-2.47121e-010	-2.22352e-010	-1.9911e-010	-1.77535e-010	-1.57285e-010	-1.3805e-010	-1.2015e-010	-1.03728e-010	-8.78925e-011	
CoarseR50	-7.45172e-010	-7.21907e-010	-6.96775e-010	-6.68639e-010	-6.37671e-010	-6.03748e-010	-5.67165e-010	-5.18626e-010	-4.68908e-010	-4.23192e-010	-3.8078e-010	-3.40282e-010	-3.02512e-010	-2.6856e-010	-2.36933e-010	-2.07698e-010	-1.80414e-010	-1.55246e-010	-1.31609e-010	-1.09778e-010	-8.87191e-011	-6.96482e-011	-5.17996e-011	-3.45812e-011	-1.8877e-011	-3.75975e-012	
CoarseR60	-6.73348e-010	-6.48613e-010	-6.22268e-010	-5.93014e-010	-5.6066e-010	-5.25029e-010	-4.83503e-010	-4.31891e-010	-3.83905e-010	-3.39928e-010	-2.97588e-010	-2.58639e-010	-2.22423e-010	-1.9006e-010	-1.59825e-010	-1.31855e-010	-1.054e-010	-8.13795e-011	-5.86944e-011	-3.7713e-011	-1.80066e-011	2.1941e-013	1.73359e-011	3.36608e-011	4.84999e-011	6.27487e-011	
CoarseR70	-6.15266e-010	-5.88985e-010	-5.61264e-010	-5.3094e-010	-4.97166e-010	-4.59716e-010	-4.11058e-010	-3.60849e-010	-3.14233e-010	-2.70021e-010	-2.29351e-010	-1.9204e-010	-1.57164e-010	-1.25952e-010	-9.65601e-011	-6.96643e-011	-4.39275e-011	-2.07822e-011	8.11709e-013	2.11542e-011	3.97856e-011	5.73801e-011	7.38894e-011	8.93292e-011	1.03542e-010	1.17118e-010	
CoarseR80	-5.6709e-010	-5.39398e-010	-5.10331e-010	-4.78158e-010	-4.43379e-010	-4.03099e-010	-3.50136e-010	-3.00927e-010	-2.54933e-010	-2.11239e-010	-1.71453e-010	-1.35273e-010	-1.01933e-010	-7.18034e-011	-4.33193e-011	-1.70384e-011	7.23107e-012	2.97446e-011	5.07635e-011	7.02812e-011	8.84738e-011	1.05421e-010	1.21089e-010	1.35679e-010	1.49678e-010	1.62363e-010	
CoarseR90	-5.25847e-010	-4.97072e-010	-4.6701e-010	-4.33569e-010	-3.96808e-010	-3.49946e-010	-2.9771e-010	-2.49432e-010	-2.03748e-010	-1.61271e-010	-1.22732e-010	-8.7261e-011	-5.45444e-011	-2.52176e-011	2.46477e-012	2.76804e-011	5.15943e-011	7.32942e-011	9.36884e-011	1.12357e-010	1.30191e-010	1.46483e-010	1.61494e-010	1.75217e-010	1.88575e-010	2.00833e-010	
CoarseR100	-4.90127e-010	-4.5977e-010	-4.28673e-010	-3.94208e-010	-3.55423e-010	-3.03062e-010	-2.52069e-010	-2.04016e-010	-1.58204e-010	-1.16961e-010	-7.93004e-011	-4.47967e-011	-1.31339e-011	1.55868e-011	4.22098e-011	6.70725e-011	9.01216e-011	1.11459e-010	1.31221e-010	1.49266e-010	1.66495e-010	1.81669e-010	1.96748e-010	2.10277e-010	2.22698e-010	2.34311e-010	
CoarseR110	-4.5941e-010	-4.27582e-010	-3.95112e-010	-3.5941e-010	-3.17989e-010	-2.62567e-010	-2.121e-010	-1.63913e-010	-1.19273e-010	-7.85586e-011	-4.15642e-011	-8.11397e-012	2.31457e-011	5.0811e-011	7.68976e-011	1.01618e-010	1.23838e-010	1.44336e-010	1.63743e-010	1.81386e-010	1.97691e-010	2.13191e-010	2.26871e-010	2.40196e-010	2.52224e-010	2.63357e-010	
CoarseR120	-4.31741e-010	-3.99244e-010	-3.65497e-010	-3.2818e-010	-2.81466e-010	-2.26938e-010	-1.76692e-010	-1.28332e-010	-8.44629e-011	-4.44927e-011	-8.38081e-012	2.43014e-011	5.50351e-011	8.23533e-011	1.08295e-010	1.31927e-010	1.53574e-010	1.73859e-010	1.92593e-010	2.09585e-010	2.2575e-010	2.40354e-010	2.54084e-010	2.66702e-010	2.78236e-010	2.88638e-010	
CoarseR130	-4.07411e-010	-3.73729e-010	-3.38748e-010	-2.99945e-010	-2.48987e-010	-1.94529e-010	-1.43772e-010	-9.61913e-011	-5.3174e-011	-1.36953e-011	2.1372e-011	5.39333e-011	8.38757e-011	1.10851e-010	1.35903e-010	1.59433e-010	1.8064e-010	2.0034e-010	2.18454e-010	2.35235e-010	2.50935e-010	2.65068e-010	2.78373e-010	2.90755e-010	3.01332e-010	3.11502e-010	
CoarseR140	-3.851e-010	-3.50604e-010	-3.14493e-010	-2.73997e-010	-2.18964e-010	-1.64671e-010	-1.14031e-010	-6.73396e-011	-2.46006e-011	1.4008e-011	4.86604e-011	8.04958e-011	1.10241e-010	1.36873e-010	1.61618e-010	1.83978e-010	2.05343e-010	2.24551e-010	2.4227e-010	2.58634e-010	2.73621e-010	2.87559e-010	3.0062e-010	3.12282e-010	3.22842e-010	3.32279e-010	
CoarseR150	-3.6525e-010	-3.28931e-010	-2.92262e-010	-2.5008e-010	-1.91587e-010	-1.38369e-010	-8.71732e-011	-4.05816e-011	1.08042e-012	3.92034e-011	7.336e-011	1.04686e-010	1.33947e-010	1.59952e-010	1.84533e-010	2.06764e-010	2.27442e-010	2.46236e-010	2.63721e-010	2.79669e-010	2.94678e-010	3.08113e-010	3.20194e-010	3.31382e-010	3.41663e-010	3.50813e-010	
CoarseR160	-3.46491e-010	-3.09217e-010	-2.71544e-010	-2.24646e-010	-1.6687e-010	-1.132e-010	-6.21423e-011	-1.61356e-011	2.54285e-011	6.27652e-011	9.64859e-011	1.27363e-010	1.56417e-010	1.81802e-010	2.05703e-010	2.27539e-010	2.48032e-010	2.66886e-010	2.8394e-010	2.99152e-010	3.13725e-010	3.26649e-010	3.38702e-010	3.49646e-010	3.59095e-010	3.67719e-010	
CoarseR170	-3.29836e-010	-2.91447e-010	-2.52554e-010	-2.01806e-010	-1.44426e-010	-8.98332e-011	-3.93472e-011	5.89384e-012	4.66465e-011	8.35851e-011	1.17054e-010	1.47678e-010	1.76211e-010	2.01368e-010	2.25183e-010	2.46564e-010	2.66641e-010	2.85063e-010	3.01853e-010	3.16795e-010	3.31154e-010	3.43568e-010	3.55099e-010	3.65495e-010	3.74952e-010	3.8275e-010	
CoarseR180	-3.13897e-010	-2.74854e-010	-2.34518e-010	-1.80576e-010	-1.23047e-010	-6.80801e-011	-1.85395e-011	2.62702e-011	6.67441e-011	1.03591e-010	1.36647e-010	1.67156e-010	1.95052e-010	2.20076e-010	2.43173e-010	2.64879e-010	2.84482e-010	3.02155e-010	3.18793e-010	3.33766e-010	3.47297e-010	3.5974e-010	3.70739e-010	3.80821e-010	3.897e-010	3.97391e-010	
CoarseR190	-2.99014e-010	-2.59255e-010	-2.17412e-010	-1.60569e-010	-1.03805e-010	-4.84481e-011	9.97855e-013	4.55954e-011	8.57007e-011	1.22133e-010	1.54883e-010	1.84744e-010	2.12455e-010	2.37072e-010	2.60442e-010	2.81284e-010	3.006e-010	3.18611e-010	3.34482e-010	3.48902e-010	3.62481e-010	3.743e-010	3.85284e-010	3.94781e-010	4.03141e-010	4.10229e-010	
CoarseR200	-2.85469e-010	-2.4493e-010	-2.01763e-010	-1.419e-010	-8.51347e-011	-2.94685e-011	1.94472e-011	6.34187e-011	1.02892e-010	1.39016e-010	1.71517e-010	2.01245e-010	2.29024e-010	2.53214e-010	2.75931e-010	2.96704e-010	3.16107e-010	3.3311e-010	3.49213e-010	3.63632e-010	3.76414e-010	3.88216e-010	3.98615e-010	4.07512e-010	4.15804e-010	4.22297e-010	
CoarseR210	-2.72477e-010	-2.30686e-010	-1.86728e-010	-1.24995e-010	-6.713e-011	-1.24376e-011	3.60217e-011	7.9516e-011	1.19082e-010	1.54903e-010	1.87483e-010	2.1681e-010	2.44174e-010	2.68415e-010	2.90949e-010	3.11492e-010	3.29884e-010	3.47376e-010	3.62989e-010	3.77146e-010	3.89345e-010	4.01122e-010	4.1066e-010	4.19539e-010	4.2721e-010	4.33583e-010	
CoarseR220	-2.61001e-010	-2.18176e-010	-1.71125e-010	-1.08821e-010	-5.11725e-011	3.69566e-012	5.19942e-011	9.52925e-011	1.34617e-010	1.70101e-010	2.0187e-010	2.31312e-010	2.58388e-010	2.8218e-010	3.04703e-010	3.24812e-010	3.43432e-010	3.60445e-010	3.75813e-010	3.89382e-010	4.02029e-010	4.12717e-010	4.22467e-010	4.30692e-010	4.3825e-010	4.4348e-010	
CoarseR230	-2.49361e-010	-2.0583e-010	-1.55963e-010	-9.4005e-011	-3.56248e-011	1.88463e-011	6.66663e-011	1.10079e-010	1.48748e-010	1.83627e-010	2.15793e-010	2.45017e-010	2.71656e-010	2.95258e-010	3.17575e-010	3.3743e-010	3.56049e-010	3.72818e-010	3.87841e-010	4.01127e-010	4.13167e-010	4.24369e-010	4.33489e-010	4.41684e-010	4.48009e-010	4.5316e-010	
CoarseR240	-2.39028e-010	-1.94761e-010	-1.42003e-010	-8.00366e-011	-2.10179e-011	3.2841e-011	8.00825e-011	1.23001e-010	1.61899e-010	1.96821e-010	2.28775e-010	2.57343e-010	2.84126e-010	3.07915e-010	3.29762e-010	3.49647e-010	3.67997e-010	3.84145e-010	3.99144e-010	4.12399e-010	4.24169e-010	4.34484e-010	4.43778e-010	4.50992e-010	4.57273e-010	4.61747e-010	
CoarseR250	-2.28933e-010	-1.83215e-010	-1.28995e-010	-6.6802e-011	-7.59701e-012	4.60675e-011	9.36538e-011	1.35974e-010	1.7465e-010	2.09309e-010	2.4094e-010	2.69881e-010	2.95855e-010	3.19998e-010	3.41579e-010	3.61113e-010	3.79214e-010	3.95189e-010	4.10048e-010	4.22787e-010	4.34479e-010	4.44666e-010	4.53335e-010	4.60781e-010	4.66118e-010	4.70108e-010	
MinCout:	2.1941e-013	CoarseR:	60	CoarseC:	210

	CoarseC120	CoarseC121	CoarseC122	CoarseC123	CoarseC124	CoarseC125	CoarseC126	CoarseC127	CoarseC128	CoarseC129	CoarseC130	CoarseC131	CoarseC132	CoarseC133	CoarseC134	CoarseC135	CoarseC136	CoarseC137	CoarseC138	CoarseC139	CoarseC140	
CoarseR80	-1.01663e-010	-9.84665e-011	-9.54388e-011	-9.26204e-011	-8.94055e-011	-8.63883e-011	-8.31844e-011	-8.01643e-011	-7.67578e-011	-7.45597e-011	-7.13501e-011	-6.85116e-011	-6.6006e-011	-6.29785e-011	-5.97631e-011	-5.74407e-011	-5.44094e-011	-5.16426e-011	-4.86086e-011	-4.62816e-011	-4.30579e-011	
CoarseR81	-9.65502e-011	-9.35371e-011	-9.05932e-011	-8.76895e-011	-8.41055e-011	-8.15386e-011	-7.82508e-011	-7.54975e-011	-7.18224e-011	-6.98915e-011	-6.68666e-011	-6.38408e-011	-6.10678e-011	-5.83056e-011	-5.52771e-011	-5.20571e-011	-4.97331e-011	-4.66993e-011	-4.39949e-011	-4.11492e-011	-3.83765e-011	
CoarseR82	-9.17905e-011	-8.85911e-011	-8.53071e-011	-8.27419e-011	-7.95263e-011	-7.6323e-011	-7.33004e-011	-7.04648e-011	-6.70568e-011	-6.46835e-011	-6.19129e-011	-5.86987e-011	-5.58579e-011	-5.30945e-011	-5.03181e-011	-4.72857e-011	-4.43297e-011	-4.2004e-011	-3.89676e-011	-3.63751e-011	-3.34128e-011	
CoarseR83	-8.68866e-011	-8.36745e-011	-8.06578e-011	-7.78231e-011	-7.43501e-011	-7.13299e-011	-6.86454e-011	-6.58075e-011	-6.21432e-011	-6.00242e-011	-5.71735e-011	-5.42243e-011	-5.15704e-011	-4.85402e-011	-4.55862e-011	-4.28081e-011	-3.97735e-011	-3.70024e-011	-3.42223e-011	-3.14484e-011	-2.91192e-011	
CoarseR84	-8.22001e-011	-7.89117e-011	-7.58944e-011	-7.28757e-011	-6.94721e-011	-6.69024e-011	-6.38796e-011	-6.08554e-011	-5.76328e-011	-5.5513e-011	-5.24849e-011	-4.92676e-011	-4.66909e-011	-4.39151e-011	-4.08818e-011	-3.78472e-011	-3.55221e-011	-3.27497e-011	-2.95222e-011	-2.71276e-011	-2.44166e-011	
CoarseR85	-7.72136e-011	-7.40097e-011	-7.09909e-011	-6.84222e-011	-6.49376e-011	-6.2182e-011	-5.9156e-011	-5.61308e-011	-5.29078e-011	-5.07871e-011	-4.77581e-011	-4.47277e-011	-4.16963e-011	-3.91855e-011	-3.61512e-011	-3.33802e-011	-3.07902e-011	-2.80164e-011	-2.52353e-011	-2.24585e-011	-1.96801e-011	
CoarseR86	-7.248e-011	-6.92743e-011	-6.61707e-011	-6.3417e-011	-6.0199e-011	-5.71751e-011	-5.43358e-011	-5.15758e-011	-4.81638e-011	-4.6042e-011	-4.30115e-011	-4.00488e-011	-3.72045e-011	-3.44351e-011	-3.13993e-011	-2.86207e-011	-2.58467e-011	-2.32627e-011	-2.04787e-011	-1.77002e-011	-1.53696e-011	
CoarseR87	-6.80383e-011	-6.4747e-011	-6.17263e-011	-5.91589e-011	-5.54924e-011	-5.26531e-011	-4.9627e-011	-4.68655e-011	-4.36411e-011	-4.12529e-011	-3.84867e-011	-3.54536e-011	-3.2678e-011	-2.99072e-011	-2.66806e-011	-2.40911e-011	-2.13157e-011	-1.89881e-011	-1.59461e-011	-1.31661e-011	-1.0835e-011	
CoarseR88	-6.3225e-011	-6.00207e-011	-5.69947e-011	-5.44262e-011	-5.0758e-011	-4.81064e-011	-4.51505e-011	-4.21217e-011	-3.89023e-011	-3.69611e-011	-3.39289e-011	-3.09704e-011	-2.79351e-011	-2.55429e-011	-2.2574e-011	-1.97987e-011	-1.72082e-011	-1.42395e-011	-1.14595e-011	-8.86591e-012	-6.08301e-012	
CoarseR89	-5.88035e-011	-5.59606e-011	-5.27491e-011	-5.01763e-011	-4.65098e-011	-4.36688e-011	-4.09011e-011	-3.80635e-011	-3.46503e-011	-3.24492e-011	-2.94909e-011	-2.67157e-011	-2.39435e-011	-2.12863e-011	-1.80572e-011	-1.55398e-011	-1.29535e-011	-9.91059e-012	-7.19709e-012	-4.60754e-012	-2.08158e-012	
CoarseR90	-5.45355e-011	-5.12501e-011	-4.8484e-011	-4.56475e-011	-4.19762e-011	-3.9475e-011	-3.6632e-011	-3.37907e-011	-3.01136e-011	-2.81782e-011	-2.49531e-011	-2.2371e-011	-1.9594e-011	-1.68189e-011	-1.35876e-011	-1.09976e-011	-8.41029e-012	-5.62932e-012	-3.10608e-012	-2.52912e-013	2.27353e-012	
CoarseR91	-5.01726e-011	-4.69563e-011	-4.39308e-011	-4.13558e-011	-3.78725e-011	-3.48431e-011	-3.18123e-011	-2.94951e-011	-2.56275e-011	-2.38803e-011	-2.06538e-011	-1.76163e-011	-1.5293e-011	-1.25165e-011	-9.73565e-012	-6.69339e-012	-3.91219e-012	-1.58286e-012	1.46399e-012	4.24985e-012	6.58276e-012	
CoarseR92	-4.58551e-011	-4.26407e-011	-3.96142e-011	-3.67725e-011	-3.35514e-011	-3.0786e-011	-2.77539e-011	-2.4981e-011	-2.14912e-011	-1.93639e-011	-1.63267e-011	-1.35518e-011	-1.07752e-011	-8.18663e-012	-5.14386e-012	-2.36263e-012	-3.39355e-014	2.74893e-012	5.53616e-012	8.32361e-012	1.09176e-011	
CoarseR93	-4.14044e-011	-3.81118e-011	-3.53439e-011	-3.27703e-011	-2.92838e-011	-2.64393e-011	-2.348e-011	-2.0445e-011	-1.72165e-011	-1.50878e-011	-1.22391e-011	-9.27025e-012	-6.68337e-012	-4.0957e-012	-1.12171e-012	1.46843e-012	4.51526e-012	6.84553e-012	9.82548e-012	1.21605e-011	1.49489e-011	
CoarseR94	-3.74875e-011	-3.45348e-011	-3.10497e-011	-2.86618e-011	-2.49869e-011	-2.2406e-011	-1.94443e-011	-1.6597e-011	-1.3368e-011	-1.09747e-011	-8.19835e-012	-5.4202e-012	-2.37671e-012	-5.08432e-014	2.99455e-012	5.51607e-012	8.56477e-012	1.08959e-011	1.3685e-011	1.62803e-011	1.90724e-011	
CoarseR95	-3.30563e-011	-2.97617e-011	-2.71836e-011	-2.44169e-011	-2.09276e-011	-1.83457e-011	-1.55748e-011	-1.25373e-011	-9.04087e-012	-6.91214e-012	-4.13369e-012	-1.35417e-012	1.69009e-012	4.28049e-012	7.25652e-012	9.58571e-012	1.23733e-011	1.4968e-011	1.80203e-011	2.05497e-011	2.29539e-011	
CoarseR96	-2.91684e-011	-2.5682e-011	-2.29167e-011	-2.03358e-011	-1.68453e-011	-1.40737e-011	-1.1491e-011	-8.4524e-012	-5.02774e-012	-3.08839e-012	1.47036e-013	2.73484e-012	5.51757e-012	8.10926e-012	1.11554e-011	1.41362e-011	1.67311e-011	1.9258e-011	2.15915e-011	2.43855e-011	2.67906e-011	
CoarseR97	-2.51447e-011	-2.21132e-011	-1.90803e-011	-1.64982e-011	-1.30062e-011	-1.02356e-011	-7.65017e-012	-4.6103e-012	-1.18616e-012	1.21236e-012	3.79922e-012	6.58162e-012	9.36585e-012	1.16937e-011	1.47433e-011	1.79881e-011	2.05144e-011	2.3112e-011	2.57074e-011	2.82416e-011	3.08422e-011	
CoarseR98	-2.1102e-011	-1.82558e-011	-1.50296e-011	-1.26384e-011	-8.95626e-012	-6.37383e-012	-3.59747e-012	-7.4615e-013	2.87357e-012	4.62317e-012	7.59565e-012	1.04504e-011	1.32361e-011	1.57579e-011	1.88094e-011	2.15965e-011	2.43891e-011	2.69879e-011	2.95186e-011	3.21196e-011	3.49184e-011	
CoarseR99	-1.69543e-011	-1.39201e-011	-1.06918e-011	-8.56785e-012	-5.07247e-012	-2.02905e-012	4.81102e-013	3.33352e-012	6.76227e-012	8.96853e-012	1.14856e-011	1.45341e-011	1.71285e-011	1.98453e-011	2.28983e-011	2.54963e-011	2.80904e-011	3.08858e-011	3.3683e-011	3.60196e-011	3.85547e-011	
CoarseR100	-1.31339e-011	-1.00933e-011	-7.05637e-012	-4.4707e-012	-1.24293e-012	1.53485e-012	4.38734e-012	7.16822e-012	1.05963e-011	1.25384e-011	1.5781e-011	1.81082e-011	2.11595e-011	2.37564e-011	2.6738e-011	2.93371e-011	3.21326e-011	3.42721e-011	3.72662e-011	3.96034e-011	4.26658e-011	
MinCout:	-3.39355e-014	CoarseR:	92	CoarseC:	136

	FineC0	FineC10	FineC20	FineC30	FineC40	FineC50	FineC60	FineC70	FineC80	FineC90	FineC100	FineC110	FineC120	FineC130	FineC140	FineC150	FineC160	FineC170	FineC180	FineC190	FineC200	FineC210	FineC220	FineC230	FineC240	FineC250	
FineR0	-2.1867e-010	-1.83068e-010	-1.59806e-010	-1.41809e-010	-1.27827e-010	-1.16456e-010	-1.06963e-010	-9.90133e-011	-9.24097e-011	-8.61792e-011	-8.12198e-011	-7.67095e-011	-7.26482e-011	-6.90365e-011	-6.59988e-011	-6.30236e-011	-6.04999e-011	-5.83657e-011	-5.59778e-011	-5.40296e-011	-5.23456e-011	-5.05869e-011	-4.92818e-011	-4.75948e-011	-4.63016e-011	-4.52595e-011	
FineR10	-1.86879e-010	-1.52226e-010	-1.29033e-010	-1.11542e-010	-9.72866e-011	-8.61607e-011	-7.66683e-011	-6.89743e-011	-6.22795e-011	-5.64911e-011	-5.15963e-011	-4.73452e-011	-4.34672e-011	-3.98504e-011	-3.6808e-011	-3.37637e-011	-3.09814e-011	-2.88436e-011	-2.67044e-011	-2.52749e-011	-2.35171e-011	-2.15727e-011	-2.00771e-011	-1.85809e-011	-1.75387e-011	-1.59769e-011	
FineR20	-1.72627e-010	-1.37965e-010	-1.15206e-010	-9.79033e-011	-8.39034e-011	-7.27677e-011	-6.34592e-011	-5.54955e-011	-4.88766e-011	-4.30863e-011	-3.83784e-011	-3.38602e-011	-3.00555e-011	-2.63687e-011	-2.33928e-011	-2.06103e-011	-1.82092e-011	-1.5874e-011	-1.37336e-011	-1.17884e-011	-9.83725e-012	-8.34221e-012	-6.65174e-012	-5.60999e-012	-4.04713e-012	-3.00421e-012	
FineR30	-1.6457e-010	-1.29917e-010	-1.07238e-010	-8.99324e-011	-7.61985e-011	-6.4986e-011	-5.5487e-011	-4.75213e-011	-4.09004e-011	-3.55569e-011	-3.03997e-011	-2.63343e-011	-2.24556e-011	-1.87681e-011	-1.57925e-011	-1.30093e-011	-1.02235e-011	-8.0838e-012	-6.2021e-012	-3.9923e-012	-2.49796e-012	-8.74758e-013	6.87926e-013	2.18463e-012	3.22695e-012	4.52885e-012	
FineR40	-1.5904e-010	-1.25e-010	-1.02054e-010	-8.45605e-011	-7.10125e-011	-5.97993e-011	-5.05653e-011	-4.30464e-011	-3.5976e-011	-3.03701e-011	-2.54736e-011	-2.11434e-011	-1.75282e-011	-1.3648e-011	-1.06719e-011	-8.14807e-012	-5.74641e-012	-3.15001e-012	-1.27089e-012	6.77946e-013	2.36715e-012	4.12484e-012	5.81633e-012	6.9222e-012	8.22634e-012	9.46233e-012	
FineR50	-1.55502e-010	-1.20844e-010	-9.87932e-011	-8.11219e-011	-6.72199e-011	-5.63502e-011	-4.68491e-011	-3.91448e-011	-3.24498e-011	-2.69157e-011	-2.17571e-011	-1.76908e-011	-1.36207e-011	-1.0386e-011	-7.1469e-012	-4.36229e-012	-1.76757e-012	3.04479e-013	2.25388e-012	4.39724e-012	5.89182e-012	7.84291e-012	9.33909e-012	1.03808e-011	1.19452e-011	1.29881e-011	
FineR60	-1.52726e-010	-1.185e-010	-9.57358e-011	-7.84176e-011	-6.46824e-011	-5.34689e-011	-4.4423e-011	-3.67153e-011	-2.98335e-011	-2.42991e-011	-1.93295e-011	-1.48097e-011	-1.11943e-011	-7.76647e-012	-4.52884e-012	-2.00528e-012	5.88817e-013	2.92324e-012	5.06556e-012	6.82152e-012	8.51099e-012	1.00063e-011	1.19589e-011	1.34558e-011	1.44982e-011	1.53446e-011	
FineR70	-1.50685e-010	-1.16461e-010	-9.39681e-011	-7.64711e-011	-6.29134e-011	-5.16992e-011	-4.21974e-011	-3.44949e-011	-2.80623e-011	-2.22634e-011	-1.75578e-011	-1.30377e-011	-9.42201e-012	-5.54e-012	-2.75609e-012	2.92853e-014	2.62349e-012	4.95811e-012	6.90683e-012	8.85637e-012	1.08079e-011	1.23031e-011	1.35372e-011	1.48404e-011	1.63377e-011	1.76413e-011	
FineR80	-1.48977e-010	-1.14754e-010	-9.22607e-011	-7.47635e-011	-6.12058e-011	-4.99916e-011	-4.09448e-011	-3.27868e-011	-2.63541e-011	-2.08195e-011	-1.58494e-011	-1.13292e-011	-7.71345e-012	-3.83112e-012	-7.85168e-013	1.73829e-012	4.13993e-012	6.47458e-012	8.42234e-012	1.05657e-011	1.22554e-011	1.37507e-011	1.52467e-011	1.6811e-011	1.77855e-011	1.90894e-011	
FineR90	-1.47515e-010	-1.13124e-010	-9.08041e-011	-7.33083e-011	-5.95708e-011	-4.83554e-011	-3.97569e-011	-3.15989e-011	-2.49027e-011	-1.95594e-011	-1.43988e-011	-1.01424e-011	-6.26335e-012	-2.64356e-012	4.02403e-013	3.18793e-012	5.52008e-012	7.855e-012	9.60979e-012	1.17532e-011	1.37045e-011	1.49381e-011	1.66299e-011	1.79332e-011	1.92342e-011	2.05381e-011	
FineR100	-1.46592e-010	-1.12017e-010	-8.96942e-011	-7.23842e-011	-5.86389e-011	-4.74245e-011	-3.83773e-011	-3.05956e-011	-2.37861e-011	-1.84424e-011	-1.34725e-011	-9.02414e-012	-5.14475e-012	-1.71677e-012	1.52179e-012	4.30772e-012	6.44722e-012	8.78094e-012	1.07302e-011	1.28739e-011	1.45638e-011	1.63209e-011	1.78169e-011	1.88584e-011	2.0162e-011	2.14662e-011	
FineR110	-1.45736e-010	-1.11345e-010	-8.87561e-011	-7.15274e-011	-5.75233e-011	-4.64912e-011	-3.752e-011	-2.95517e-011	-2.31192e-011	-1.73211e-011	-1.26148e-011	-8.35803e-012	-4.21589e-012	-5.96091e-013	2.18729e-012	5.1659e-012	7.56765e-012	9.70838e-012	1.18506e-011	1.39942e-011	1.54885e-011	1.71794e-011	1.84818e-011	1.99784e-011	2.12821e-011	2.23248e-011	
FineR120	-1.44876e-010	-1.10303e-010	-8.77105e-011	-7.06696e-011	-5.68454e-011	-4.58985e-011	-3.66617e-011	-2.89577e-011	-2.25249e-011	-1.67262e-011	-1.17561e-011	-7.23584e-012	-3.42802e-012	0	3.23886e-012	5.76243e-012	8.16437e-012	1.03053e-011	1.24476e-011	1.43981e-011	1.60859e-011	1.77769e-011	1.93412e-011	2.08379e-011	2.18799e-011	2.31843e-011	
FineR130	-1.44106e-010	-1.09712e-010	-8.71199e-011	-6.98892e-011	-5.60643e-011	-4.48497e-011	-3.60671e-011	-2.80944e-011	-2.16624e-011	-1.60555e-011	-1.09686e-011	-6.63862e-012	-3.02311e-012	8.59677e-013	3.64284e-012	6.6214e-012	9.21702e-012	1.13581e-011	1.35007e-011	1.5256e-011	1.69457e-011	1.84408e-011	1.99367e-011	2.14364e-011	2.29338e-011	2.37795e-011	
FineR140	-1.43224e-010	-1.09106e-010	-8.67843e-011	-6.92868e-011	-5.57292e-011	-4.42491e-011	-3.54672e-011	-2.74951e-011	-2.10636e-011	-1.52681e-011	-1.03706e-011	-5.85006e-012	-2.23408e-012	1.45691e-012	4.43275e-012	7.21823e-012	9.81369e-012	1.16921e-011	1.40971e-011	1.60476e-011	1.77353e-011	1.90368e-011	2.07288e-011	2.17702e-011	2.35295e-011	2.45722e-011	
FineR150	-1.42886e-010	-1.08313e-010	-8.61788e-011	-6.89511e-011	-5.51274e-011	-4.41795e-011	-3.46768e-011	-2.71601e-011	-2.05408e-011	-1.47421e-011	-9.77209e-012	-5.25188e-012	-1.37315e-012	1.98382e-012	4.95978e-012	7.55266e-012	1.01481e-011	1.2289e-011	1.44314e-011	1.63819e-011	1.78761e-011	1.9567e-011	2.13252e-011	2.23665e-011	2.38637e-011	2.51683e-011	
FineR160	-1.42384e-010	-1.07977e-010	-8.5656e-011	-6.8347e-011	-5.43433e-011	-4.31227e-011	-3.43413e-011	-2.68248e-011	-1.99383e-011	-1.41429e-011	-9.43728e-012	-4.91687e-012	-1.10912e-012	2.38907e-012	5.29454e-012	8.14981e-012	1.06758e-011	1.30789e-011	1.5028e-011	1.69099e-011	1.86659e-011	2.03569e-011	2.13975e-011	2.31563e-011	2.41982e-011	2.55021e-011	
FineR170	-1.41861e-010	-1.0764e-010	-8.505e-011	-6.7823e-011	-5.40852e-011	-4.28693e-011	-3.38157e-011	-2.62988e-011	-1.96794e-011	-1.38805e-011	-8.9104e-012	-4.58103e-012	-7.74333e-013	2.65331e-012	5.89178e-012	8.41465e-012	1.10102e-011	1.33443e-011	1.52936e-011	1.74376e-011	1.89319e-011	2.06894e-011	2.19913e-011	2.36842e-011	2.47262e-011	2.58338e-011	
FineR180	-1.41503e-010	-1.07287e-010	-8.45255e-011	-6.74766e-011	-5.37411e-011	-4.2527e-011	-3.32897e-011	-2.60375e-011	-1.90764e-011	-1.3543e-011	-8.3836e-012	-4.31737e-012	1.63189e-014	3.44385e-012	6.41912e-012	9.20513e-012	1.13436e-011	1.36774e-011	1.56264e-011	1.777e-011	1.97223e-011	2.09549e-011	2.25193e-011	2.37543e-011	2.53196e-011	2.6362e-011	
FineR190	-1.4098e-010	-1.06763e-010	-8.44456e-011	-6.69515e-011	-5.32155e-011	-4.21846e-011	-3.32142e-011	-2.52463e-011	-1.85498e-011	-1.30162e-011	-7.8566e-012	-3.79023e-012	8.82993e-014	3.51545e-012	6.68412e-012	9.27609e-012	1.18713e-011	1.40121e-011	1.61543e-011	1.80362e-011	1.98611e-011	2.14831e-011	2.27861e-011	2.42825e-011	2.55857e-011	2.68904e-011	
FineR200	-1.40621e-010	-1.06323e-010	-8.36514e-011	-6.68723e-011	-5.31378e-011	-4.19246e-011	-3.26879e-011	-2.49064e-011	-1.82848e-011	-1.29427e-011	-7.97375e-012	-3.71773e-012	4.23992e-013	4.04298e-012	6.75548e-012	9.80385e-012	1.19429e-011	1.45386e-011	1.64874e-011	1.8369e-011	2.03203e-011	2.18152e-011	2.33109e-011	2.46143e-011	2.59172e-011	2.69595e-011	
FineR210	-1.40186e-010	-1.0624e-010	-8.33838e-011	-6.64268e-011	-5.27932e-011	-4.13926e-011	-3.26122e-011	-2.48315e-011	-1.82106e-011	-1.24156e-011	-7.44652e-012	-3.18938e-012	8.80087e-013	4.11478e-012	7.54581e-012	9.875e-012	1.24009e-011	1.48039e-011	1.69461e-011	1.84392e-011	2.03903e-011	2.18851e-011	2.36429e-011	2.46153e-011	2.61163e-011	2.74851e-011	
FineR220	-1.40099e-010	-1.05615e-010	-8.31272e-011	-6.60798e-011	-5.23455e-011	-4.11324e-011	-3.25364e-011	-2.43794e-011	-1.76836e-011	-1.21507e-011	-7.18176e-012	-2.92573e-012	9.5234e-013	4.57151e-012	7.80999e-012	1.01391e-011	1.2734e-011	1.48746e-011	1.70166e-011	1.916e-011	2.0654e-011	2.23448e-011	2.36466e-011	2.5144e-011	2.6447e-011	2.77516e-011	
FineR230	-1.40012e-010	-1.05445e-010	-8.28594e-011	-6.60893e-011	-5.22674e-011	-4.10555e-011	-3.20854e-011	-2.43044e-011	-1.76831e-011	-1.20769e-011	-6.91842e-012	-2.58977e-012	1.21685e-012	4.64345e-012	7.88161e-012	1.0404e-011	1.29981e-011	1.51385e-011	1.74755e-011	1.94258e-011	2.09199e-011	2.24147e-011	2.41728e-011	2.5475e-011	2.65165e-011	2.75587e-011	
FineR240	-1.39577e-010	-1.05362e-010	-8.26027e-011	-6.55541e-011	-5.17412e-011	-4.06058e-011	-3.17438e-011	-2.40425e-011	-1.74207e-011	-1.18139e-011	-6.6535e-012	-2.13403e-012	1.48102e-012	4.90793e-012	8.1464e-012	1.06682e-011	1.32633e-011	1.5404e-011	1.75461e-011	1.94963e-011	2.09902e-011	2.26809e-011	2.44391e-011	2.57414e-011	2.69771e-011	2.80194e-011	
FineR250	-1.39216e-010	-1.05093e-010	-8.26034e-011	-6.52959e-011	-5.14744e-011	-4.0795e-011	-3.14782e-011	-2.35121e-011	-1.6891e-011	-1.12849e-011	-6.58088e-012	-2.32513e-012	2.00859e-012	5.17245e-012	8.14736e-012	1.10019e-011	1.35275e-011	1.61247e-011	1.8072e-011	1.97602e-011	2.17114e-011	2.32062e-011	2.44403e-011	2.60052e-011	2.70467e-011	2.83514e-011	
MinCout:	0	FineR:	120	FineC:	130

	FineC120	FineC121	FineC122	FineC123	FineC124	FineC125	FineC126	FineC127	FineC128	FineC129	FineC130	FineC131	FineC132	FineC133	FineC134	FineC135	FineC136	FineC137	FineC138	FineC139	FineC140	
FineR110	-4.21525e-012	-3.8317e-012	-3.18488e-012	-3.18471e-012	-2.99263e-012	-2.53777e-012	-2.08265e-012	-1.69851e-012	-1.05124e-012	-1.0511e-012	-7.88321e-013	-4.03697e-013	-2.11421e-013	2.43721e-013	4.36292e-013	6.28626e-013	1.084e-012	1.27638e-012	1.73185e-012	1.92428e-012	2.187e-012	
FineR111	-4.02389e-012	-3.8317e-012	-3.37695e-012	-3.18488e-012	-2.92183e-012	-2.53792e-012	-2.08278e-012	-1.62785e-012	-1.43556e-012	-7.88321e-013	-5.96093e-013	-4.03697e-013	5.13285e-014	2.43841e-013	4.36164e-013	6.98981e-013	1.34667e-012	1.34667e-012	1.99449e-012	1.92428e-012	2.187e-012	
FineR112	-4.02389e-012	-3.76077e-012	-3.3771e-012	-2.92196e-012	-2.92183e-012	-2.53792e-012	-2.08298e-012	-1.62785e-012	-1.24359e-012	-9.80646e-013	-5.96091e-013	-4.03827e-013	-1.40947e-013	5.06566e-013	5.06566e-013	9.61671e-013	1.34659e-012	1.34667e-012	2.25713e-012	1.99449e-012	2.44998e-012	
FineR113	-3.95292e-012	-3.76091e-012	-3.11415e-012	-2.92228e-012	-2.46714e-012	-2.27503e-012	-1.89082e-012	-1.62785e-012	-1.24359e-012	-9.80646e-013	-5.96209e-013	-3.33306e-013	3.14174e-013	3.14174e-013	7.69291e-013	1.15415e-012	1.15422e-012	1.80201e-012	1.99443e-012	2.25713e-012	2.44994e-012	
FineR114	-3.95304e-012	-3.56931e-012	-3.3062e-012	-2.85111e-012	-2.46725e-012	-2.20425e-012	-1.82011e-012	-1.62796e-012	-1.17295e-012	-7.8857e-013	-5.25642e-013	-7.05207e-014	3.14104e-013	3.14174e-013	9.61793e-013	1.15415e-012	1.41692e-012	1.80196e-012	2.06469e-012	2.51978e-012	2.71259e-012	
FineR115	-3.95304e-012	-3.49836e-012	-3.04325e-012	-2.65945e-012	-2.39642e-012	-2.01236e-012	-2.01236e-012	-1.36523e-012	-9.10103e-013	-5.25713e-013	-2.62821e-013	-7.05207e-014	3.14104e-013	5.76935e-013	7.69389e-013	9.61793e-013	1.41692e-012	1.87226e-012	2.06469e-012	2.4499e-012	2.71259e-012	
FineR116	-3.69049e-012	-3.49836e-012	-3.04325e-012	-2.65945e-012	-2.39642e-012	-2.01244e-012	-1.74945e-012	-1.10235e-012	-9.10103e-013	-5.25713e-013	-2.62821e-013	1.92264e-013	3.846e-013	8.39695e-013	7.69389e-013	1.22453e-012	1.41689e-012	1.87226e-012	2.32736e-012	2.25745e-012	2.97525e-012	
FineR117	-3.88202e-012	-3.23537e-012	-2.85163e-012	-2.58857e-012	-2.20466e-012	-1.94164e-012	-1.74945e-012	-1.10235e-012	-6.47257e-013	-4.55098e-013	-2.62821e-013	-7.05434e-014	3.846e-013	8.39695e-013	1.03216e-012	1.22451e-012	1.67986e-012	1.87226e-012	2.06498e-012	2.52014e-012	2.52014e-012	
FineR118	-3.69058e-012	-3.42746e-012	-2.7807e-012	-2.58857e-012	-2.39648e-012	-1.94164e-012	-1.29457e-012	-1.10238e-012	-9.10245e-013	-4.55098e-013	-4.55098e-013	1.92289e-013	6.47397e-013	6.47397e-013	1.03216e-012	1.22451e-012	1.67986e-012	1.87226e-012	2.13498e-012	2.78282e-012	2.71259e-012	
FineR119	-3.69058e-012	-3.23543e-012	-2.7807e-012	-2.58863e-012	-2.1338e-012	-1.6787e-012	-1.48676e-012	-1.29457e-012	-6.47353e-013	-4.55123e-013	-1.92242e-013	4.55121e-013	4.55121e-013	8.39816e-013	1.03215e-012	1.48748e-012	1.94261e-012	2.13529e-012	2.59042e-012	2.52014e-012	2.97568e-012	
FineR120	-3.61953e-012	-3.23591e-012	-2.78074e-012	-2.58863e-012	-2.1338e-012	-1.94168e-012	-1.48676e-012	-1.03165e-012	-6.47353e-013	-4.55123e-013	0	1.92277e-013	4.55121e-013	1.10262e-012	1.29496e-012	1.55771e-012	1.67986e-012	1.94261e-012	2.59042e-012	2.59042e-012	3.23838e-012	
FineR121	-3.35647e-012	-3.16444e-012	-2.78074e-012	-2.5177e-012	-1.87083e-012	-1.6787e-012	-1.48676e-012	-1.03165e-012	-3.84461e-013	-3.84461e-013	2.62868e-013	2.62868e-013	9.10336e-013	6.47493e-013	1.29512e-012	1.75027e-012	1.75027e-012	2.39805e-012	2.32772e-012	2.59042e-012	3.23838e-012	
FineR122	-3.35647e-012	-3.16445e-012	-2.70977e-012	-2.06293e-012	-1.87082e-012	-1.67894e-012	-1.22381e-012	-1.03164e-012	-3.84438e-013	-1.21568e-013	0	2.62868e-013	6.47506e-013	9.10336e-013	1.36543e-012	1.75032e-012	1.75027e-012	2.13532e-012	2.39805e-012	3.04597e-012	3.04597e-012	
FineR123	-3.35647e-012	-3.16489e-012	-2.70977e-012	-2.06293e-012	-2.06293e-012	-1.41595e-012	-9.6086e-013	-5.76623e-013	-5.76657e-013	-1.21568e-013	7.06376e-014	5.25736e-013	9.10385e-013	9.10336e-013	1.36543e-012	1.55794e-012	2.01305e-012	2.39811e-012	2.66081e-012	3.04604e-012	3.3087e-012	
FineR124	-3.35648e-012	-2.90182e-012	-2.44674e-012	-2.06291e-012	-1.79992e-012	-1.67894e-012	-9.6086e-013	-7.68831e-013	-3.13729e-013	-1.92255e-013	2.62904e-013	5.25736e-013	9.10385e-013	1.17318e-012	1.55801e-012	1.82076e-012	2.46849e-012	2.20569e-012	2.59086e-012	2.85358e-012	3.3087e-012	
FineR125	-3.09385e-012	-2.63875e-012	-2.70977e-012	-2.25501e-012	-1.79992e-012	-1.41592e-012	-1.22379e-012	-5.05867e-013	-3.13729e-013	7.06847e-014	3.33541e-013	7.88604e-013	7.18072e-013	1.17318e-012	1.3655e-012	1.82076e-012	2.20577e-012	2.46849e-012	2.92356e-012	2.85358e-012	3.3087e-012	
FineR126	-3.28539e-012	-2.63875e-012	-2.44669e-012	-1.99197e-012	-1.53691e-012	-1.41592e-012	-8.89975e-013	-7.68785e-013	-5.05867e-013	1.41369e-013	5.96445e-013	7.18132e-013	9.80951e-013	1.36572e-012	1.6285e-012	2.08358e-012	2.27619e-012	2.46849e-012	2.85367e-012	3.11635e-012	3.3092e-012	
FineR127	-3.09382e-012	-2.83074e-012	-2.18399e-012	-1.9919e-012	-1.60802e-012	-1.34504e-012	-9.60924e-013	-5.05786e-013	-3.13755e-013	1.41369e-013	3.33624e-013	7.88745e-013	9.81047e-013	1.43626e-012	1.6285e-012	2.01345e-012	2.27619e-012	2.73128e-012	2.85367e-012	3.37912e-012	3.30881e-012	
FineR128	-3.09382e-012	-2.83074e-012	-2.18399e-012	-1.9919e-012	-1.34496e-012	-1.34504e-012	-8.89975e-013	-6.97982e-013	-5.07799e-014	4.04309e-013	3.33624e-013	7.88745e-013	9.81047e-013	1.43626e-012	1.62861e-012	2.08392e-012	2.53902e-012	2.53902e-012	2.92402e-012	3.11647e-012	3.57199e-012	
FineR129	-3.0227e-012	-2.83074e-012	-1.92091e-012	-1.9919e-012	-1.5371e-012	-1.08202e-012	-8.90074e-013	-6.97982e-013	-5.07799e-014	1.41464e-013	5.96562e-013	1.05166e-012	1.05166e-012	1.69915e-012	1.69915e-012	2.08392e-012	2.53902e-012	2.73171e-012	3.18682e-012	3.18682e-012	3.83477e-012	
FineR130	-2.75956e-012	-2.37599e-012	-2.18391e-012	-1.72914e-012	-1.27404e-012	-1.34496e-012	-8.90074e-013	-1.71983e-013	2.12195e-013	4.04401e-013	8.59513e-013	8.59513e-013	1.50697e-012	1.43638e-012	1.89166e-012	2.34678e-012	2.27631e-012	2.99455e-012	2.92415e-012	3.37964e-012	3.83477e-012	
MinCout:	0	FineR:	120	FineC:	130

