	CoarseC0	CoarseC10	CoarseC20	CoarseC30	CoarseC40	CoarseC50	CoarseC60	CoarseC70	CoarseC80	CoarseC90	CoarseC100	CoarseC110	CoarseC120	CoarseC130	CoarseC140	CoarseC150	CoarseC160	CoarseC170	CoarseC180	CoarseC190	CoarseC200	CoarseC210	CoarseC220	CoarseC230	CoarseC240	CoarseC250	
CoarseR0	-1.8022e-009	-1.79192e-009	-1.77685e-009	-1.75825e-009	-1.73577e-009	-1.71025e-009	-1.68287e-009	-1.65228e-009	-1.61954e-009	-1.58476e-009	-1.54724e-009	-1.50672e-009	-1.4583e-009	-1.40931e-009	-1.36353e-009	-1.31988e-009	-1.28004e-009	-1.24209e-009	-1.2062e-009	-1.17291e-009	-1.14177e-009	-1.11212e-009	-1.08521e-009	-1.0594e-009	-1.03491e-009	-1.01227e-009	
CoarseR10	-1.38857e-009	-1.37409e-009	-1.35695e-009	-1.33594e-009	-1.3126e-009	-1.28672e-009	-1.25886e-009	-1.22844e-009	-1.19583e-009	-1.16033e-009	-1.12128e-009	-1.07438e-009	-1.02758e-009	-9.83719e-010	-9.42593e-010	-9.03557e-010	-8.67177e-010	-8.32706e-010	-8.01112e-010	-7.71261e-010	-7.43654e-010	-7.17585e-010	-6.93468e-010	-6.7037e-010	-6.48731e-010	-6.28118e-010	
CoarseR20	-1.13796e-009	-1.1218e-009	-1.10284e-009	-1.08121e-009	-1.05724e-009	-1.03068e-009	-1.00199e-009	-9.70839e-010	-9.37133e-010	-8.99449e-010	-8.53523e-010	-8.07783e-010	-7.64158e-010	-7.23756e-010	-6.85285e-010	-6.48956e-010	-6.15749e-010	-5.84856e-010	-5.55248e-010	-5.28506e-010	-5.03426e-010	-4.79349e-010	-4.57114e-010	-4.35817e-010	-4.15784e-010	-3.97552e-010	
CoarseR30	-9.69033e-010	-9.51169e-010	-9.30876e-010	-9.0832e-010	-8.83132e-010	-8.55405e-010	-8.25984e-010	-7.93595e-010	-7.57988e-010	-7.1377e-010	-6.66903e-010	-6.23951e-010	-5.83185e-010	-5.44386e-010	-5.0801e-010	-4.7455e-010	-4.4351e-010	-4.14785e-010	-3.87631e-010	-3.62399e-010	-3.38764e-010	-3.16633e-010	-2.95868e-010	-2.76379e-010	-2.57922e-010	-2.40465e-010	
CoarseR40	-8.46875e-010	-8.28039e-010	-8.06347e-010	-7.82749e-010	-7.56291e-010	-7.27523e-010	-6.96949e-010	-6.62614e-010	-6.22379e-010	-5.74731e-010	-5.3023e-010	-4.88932e-010	-4.49101e-010	-4.12444e-010	-3.78641e-010	-3.47097e-010	-3.17995e-010	-2.90735e-010	-2.65312e-010	-2.41408e-010	-2.19248e-010	-1.98535e-010	-1.78745e-010	-1.60351e-010	-1.43029e-010	-1.26959e-010	
CoarseR50	-7.55273e-010	-7.34401e-010	-7.1213e-010	-6.86866e-010	-6.59727e-010	-6.29902e-010	-5.97463e-010	-5.60916e-010	-5.13759e-010	-4.67758e-010	-4.24966e-010	-3.84327e-010	-3.46194e-010	-3.11303e-010	-2.79179e-010	-2.49171e-010	-2.21525e-010	-1.95843e-010	-1.71614e-010	-1.48532e-010	-1.27855e-010	-1.08232e-010	-8.92241e-011	-7.19559e-011	-5.55377e-011	-4.01584e-011	
CoarseR60	-6.82597e-010	-6.60565e-010	-6.3674e-010	-6.1074e-010	-5.82081e-010	-5.50763e-010	-5.16413e-010	-4.74055e-010	-4.26049e-010	-3.81635e-010	-3.38874e-010	-2.9965e-010	-2.63759e-010	-2.30255e-010	-1.99508e-010	-1.70852e-010	-1.44241e-010	-1.19453e-010	-9.63777e-011	-7.46557e-011	-5.46063e-011	-3.57153e-011	-1.76301e-011	-1.2226e-012	1.44592e-011	2.91913e-011	
CoarseR70	-6.24151e-010	-6.0015e-010	-5.75507e-010	-5.48141e-010	-5.18436e-010	-4.85475e-010	-4.4927e-010	-4.00868e-010	-3.54326e-010	-3.10196e-010	-2.68659e-010	-2.30964e-010	-1.96017e-010	-1.64118e-010	-1.34088e-010	-1.06558e-010	-8.08192e-011	-5.73686e-011	-3.54093e-011	-1.43382e-011	5.01337e-012	2.33235e-011	4.03504e-011	5.62322e-011	7.1145e-011	8.49317e-011	
CoarseR80	-5.75421e-010	-5.50402e-010	-5.24714e-010	-4.96152e-010	-4.64456e-010	-4.30498e-010	-3.88347e-010	-3.39574e-010	-2.94036e-010	-2.49962e-010	-2.09386e-010	-1.72996e-010	-1.39167e-010	-1.07842e-010	-7.93639e-011	-5.2487e-011	-2.80974e-011	-4.95732e-012	1.6345e-011	3.68373e-011	5.53048e-011	7.27553e-011	8.91273e-011	1.04403e-010	1.18839e-010	1.32488e-010	
CoarseR90	-3.77355e-010	-5.08036e-010	-4.81337e-010	-4.51602e-010	-4.18497e-010	-3.82364e-010	-3.34815e-010	-2.86865e-010	-2.40995e-010	-1.98312e-010	-1.58922e-010	-1.2345e-010	-9.07038e-011	-6.04687e-011	-3.25606e-011	-6.5711e-012	1.72591e-011	3.9706e-011	6.06351e-011	8.02427e-011	9.79233e-011	1.14922e-010	1.3069e-010	1.45584e-010	1.5961e-010	1.72126e-010	
CoarseR100	-3.56559e-010	-2.3643e-010	-4.43543e-010	-4.12733e-010	-3.78857e-010	-3.39431e-010	-2.88881e-010	-2.41393e-010	-1.95349e-010	-1.53306e-010	-1.15273e-010	-8.09644e-011	-4.8747e-011	-1.93947e-011	7.90333e-012	3.31539e-011	5.65568e-011	7.81804e-011	9.85408e-011	1.17519e-010	1.3501e-010	1.51626e-010	1.66735e-010	1.80982e-010	1.9436e-010	2.06668e-010	
CoarseR110	-8.43016e-010	-7.64809e-010	-7.03942e-010	-3.78407e-010	-3.43153e-010	-2.9828e-010	-2.48534e-010	-2.00357e-010	-1.55637e-010	-1.14374e-010	-7.68367e-011	-4.31456e-011	-1.19079e-011	1.70239e-011	4.351e-011	6.83423e-011	9.11873e-011	1.12381e-010	1.319e-010	1.50497e-010	1.67584e-010	1.8311e-010	1.98247e-010	2.12016e-010	2.24759e-010	2.36582e-010	
CoarseR120	-6.68993e-010	-6.41675e-010	-6.23574e-010	-3.47812e-010	-3.10463e-010	-2.61717e-010	-2.12323e-010	-1.63678e-010	-1.19456e-010	-7.92502e-011	-4.25781e-011	-9.58511e-012	2.0881e-011	4.92826e-011	7.56192e-011	9.96241e-011	1.2211e-010	1.42515e-010	1.61861e-010	1.80049e-010	1.96701e-010	2.11767e-010	2.26474e-010	2.39872e-010	2.52125e-010	2.63538e-010	
CoarseR130	-6.53886e-010	-5.74994e-010	-4.91643e-010	-3.19959e-010	-2.80705e-010	-2.27742e-010	-1.78435e-010	-1.301e-010	-8.72198e-011	-4.78939e-011	-1.17317e-011	2.08499e-011	5.07876e-011	7.86478e-011	1.04579e-010	1.28015e-010	1.49802e-010	1.70297e-010	1.89261e-010	2.0652e-010	2.23062e-010	2.37932e-010	2.51936e-010	2.64873e-010	2.76696e-010	2.87809e-010	
CoarseR140	-6.17884e-010	-6.23242e-010	-3.30061e-010	-2.94398e-010	-2.51019e-010	-1.98257e-010	-1.47628e-010	-1.00666e-010	-5.79356e-011	-1.90878e-011	1.61112e-011	4.86369e-011	7.77687e-011	1.05217e-010	1.301e-010	1.53579e-010	1.75038e-010	1.95143e-010	2.13423e-010	2.30744e-010	2.46345e-010	2.61037e-010	2.74616e-010	2.87311e-010	2.9886e-010	3.09036e-010	
CoarseR150	-8.77588e-010	-8.48405e-010	-3.08015e-010	-2.71026e-010	-2.23677e-010	-1.71019e-010	-1.20483e-010	-7.37887e-011	-3.16952e-011	6.7165e-012	4.10915e-011	7.30136e-011	1.02251e-010	1.29145e-010	1.53855e-010	1.76955e-010	1.97979e-010	2.17866e-010	2.35231e-010	2.52612e-010	2.67551e-010	2.8223e-010	2.95071e-010	3.07554e-010	3.18585e-010	3.28771e-010	
CoarseR160	-3.29395e-009	-4.03647e-009	-2.87534e-010	-2.49301e-010	-1.98626e-010	-1.45189e-010	-9.50324e-011	-4.86568e-011	-7.16718e-012	3.03432e-011	6.48509e-011	9.59564e-011	1.24779e-010	1.51254e-010	1.75587e-010	1.98299e-010	2.18882e-010	2.38102e-010	2.55734e-010	2.72722e-010	2.87604e-010	3.0185e-010	3.1418e-010	3.2616e-010	3.36956e-010	3.46604e-010	
CoarseR170	-1.15049e-009	-1.13648e-009	-2.68398e-010	-2.29052e-010	-1.75321e-010	-1.21841e-010	-7.18034e-011	-2.61704e-011	1.47394e-011	5.20749e-011	8.60361e-011	1.1698e-010	1.45494e-010	1.71538e-010	1.95692e-010	2.17746e-010	2.38132e-010	2.57489e-010	2.74607e-010	2.91132e-010	3.05543e-010	3.19564e-010	3.31653e-010	3.43326e-010	3.53604e-010	3.62698e-010	
CoarseR180	-5.48865e-010	-2.87373e-010	-2.51348e-010	-2.09447e-010	-1.53366e-010	-9.95854e-011	-4.98663e-011	-5.00718e-012	3.51986e-011	7.21859e-011	1.06419e-010	1.36489e-010	1.64626e-010	1.90271e-010	2.13812e-010	2.36354e-010	2.56633e-010	2.74949e-010	2.91877e-010	3.08206e-010	3.22144e-010	3.36342e-010	3.48195e-010	3.58839e-010	3.68853e-010	3.78109e-010	
CoarseR190	-1.38053e-010	-2.71478e-010	-2.34789e-010	-1.8962e-010	-1.33757e-010	-7.91463e-011	-3.03627e-011	1.46465e-011	5.45645e-011	9.13597e-011	1.24327e-010	1.5453e-010	1.82477e-010	2.08196e-010	2.31537e-010	2.53443e-010	2.73231e-010	2.91798e-010	3.08267e-010	3.24309e-010	3.38244e-010	3.51251e-010	3.63034e-010	3.73894e-010	3.83588e-010	3.9211e-010	
CoarseR200	-2.25795e-010	-2.57056e-010	-2.19122e-010	-1.70823e-010	-1.14503e-010	-6.0159e-011	-1.18794e-011	3.23331e-011	7.22755e-011	1.08716e-010	1.41832e-010	1.71443e-010	1.98993e-010	2.24509e-010	2.47952e-010	2.6942e-010	2.88985e-010	3.06774e-010	3.23833e-010	3.39317e-010	3.52701e-010	3.65636e-010	3.77225e-010	3.87503e-010	3.97173e-010	4.05323e-010	
CoarseR210	-4.08337e-010	-2.43053e-010	-2.04918e-010	-1.53538e-010	-9.69338e-011	-4.24894e-011	5.69698e-012	4.9402e-011	8.87768e-011	1.2484e-010	1.57832e-010	1.87645e-010	2.14455e-010	2.39456e-010	2.62782e-010	2.84068e-010	3.03436e-010	3.2157e-010	3.37801e-010	3.52826e-010	3.66428e-010	3.79107e-010	3.90362e-010	4.00125e-010	4.09423e-010	4.17302e-010	
CoarseR220	-2.69746e-010	-2.30931e-010	-1.91243e-010	-1.37101e-010	-8.01146e-011	-2.62734e-011	2.15592e-011	6.5025e-011	1.04547e-010	1.39952e-010	1.72741e-010	2.02003e-010	2.2913e-010	2.54174e-010	2.77172e-010	2.9811e-010	3.17501e-010	3.34929e-010	3.51173e-010	3.66181e-010	3.7919e-010	3.91607e-010	4.02514e-010	4.12245e-010	4.20926e-010	4.28438e-010	
CoarseR230	-8.2479e-010	-2.18748e-010	-1.77857e-010	-1.2176e-010	-6.40827e-011	-1.10362e-011	3.64388e-011	8.021e-011	1.1872e-010	1.54002e-010	1.86728e-010	2.1618e-010	2.42938e-010	2.67753e-010	2.90221e-010	3.11623e-010	3.302e-010	3.4785e-010	3.63759e-010	3.785e-010	3.91255e-010	4.03408e-010	4.13927e-010	4.23364e-010	4.31439e-010	4.38283e-010	
CoarseR240	-1.04141e-009	-2.07531e-010	-1.65614e-010	-1.07869e-010	-4.95298e-011	3.71368e-012	5.07739e-011	9.38834e-011	1.32271e-010	1.67682e-010	1.99837e-010	2.28796e-010	2.56133e-010	2.80367e-010	3.02976e-010	3.23788e-010	3.42366e-010	3.5978e-010	3.75675e-010	3.90155e-010	4.02868e-010	4.14152e-010	4.24662e-010	4.34184e-010	4.41712e-010	4.48493e-010	
CoarseR250	-1.29596e-009	-1.96521e-010	-1.53804e-010	-9.43285e-011	-3.58288e-011	1.72043e-011	6.40976e-011	1.06985e-010	1.45664e-010	1.80576e-010	2.12654e-010	2.41503e-010	2.68177e-010	2.92774e-010	3.1478e-010	3.35594e-010	3.54248e-010	3.71086e-010	3.86825e-010	4.0115e-010	4.13583e-010	4.2475e-010	4.3503e-010	4.43935e-010	4.51371e-010	4.57684e-010	
MinCout:	-1.2226e-012	CoarseR:	60	CoarseC:	230

	CoarseC140	CoarseC141	CoarseC142	CoarseC143	CoarseC144	CoarseC145	CoarseC146	CoarseC147	CoarseC148	CoarseC149	CoarseC150	CoarseC151	CoarseC152	CoarseC153	CoarseC154	CoarseC155	CoarseC156	CoarseC157	CoarseC158	CoarseC159	CoarseC160	
CoarseR80	-7.93639e-011	-7.67715e-011	-7.38189e-011	-7.12383e-011	-6.88439e-011	-6.58064e-011	-6.34767e-011	-6.03712e-011	-5.76623e-011	-5.55307e-011	-5.27397e-011	-5.03399e-011	-4.756e-011	-4.52228e-011	-4.2894e-011	-4.00372e-011	-3.77688e-011	-3.53642e-011	-3.28409e-011	-3.06861e-011	-2.80902e-011	
CoarseR81	-7.44521e-011	-7.18597e-011	-6.90925e-011	-6.63236e-011	-6.39287e-011	-6.11442e-011	-5.856e-011	-5.59735e-011	-5.27431e-011	-5.0864e-011	-4.80101e-011	-4.54186e-011	-4.26373e-011	-4.02997e-011	-3.79695e-011	-3.53008e-011	-3.27667e-011	-3.04372e-011	-2.80944e-011	-2.57573e-011	-2.31603e-011	
CoarseR82	-6.9684e-011	-6.71727e-011	-6.41367e-011	-6.15545e-011	-5.87832e-011	-5.61872e-011	-5.36011e-011	-5.08253e-011	-4.79722e-011	-4.60933e-011	-4.31249e-011	-4.0724e-011	-3.81304e-011	-3.54109e-011	-3.30074e-011	-3.04738e-011	-2.83333e-011	-2.5738e-011	-2.31368e-011	-2.12466e-011	-1.8643e-011	
CoarseR83	-6.45819e-011	-6.22569e-011	-5.9408e-011	-5.66368e-011	-5.43083e-011	-5.1534e-011	-4.86815e-011	-4.63592e-011	-4.35698e-011	-4.13608e-011	-3.81991e-011	-3.57973e-011	-3.32676e-011	-3.06748e-011	-2.8525e-011	-2.60013e-011	-2.34057e-011	-2.09994e-011	-1.89151e-011	-1.63169e-011	-1.37123e-011	
CoarseR84	-5.98369e-011	-5.75115e-011	-5.44734e-011	-5.17006e-011	-4.93039e-011	-4.65184e-011	-4.39312e-011	-4.16076e-011	-3.83725e-011	-3.61632e-011	-3.34443e-011	-3.10418e-011	-2.84395e-011	-2.59172e-011	-2.37769e-011	-2.09777e-011	-1.8645e-011	-1.6238e-011	-1.36987e-011	-1.15536e-011	-9.14442e-012	
CoarseR85	-5.5833e-011	-5.25287e-011	-4.97562e-011	-4.7171e-011	-4.45847e-011	-4.20647e-011	-3.96657e-011	-3.66204e-011	-3.40304e-011	-3.1696e-011	-2.89121e-011	-2.63167e-011	-2.37885e-011	-2.11903e-011	-1.90491e-011	-1.65133e-011	-1.41063e-011	-1.1763e-011	-9.42216e-012	-7.08485e-012	-4.92961e-012	
CoarseR86	-5.06357e-011	-4.7863e-011	-4.50113e-011	-4.26145e-011	-4.00957e-011	-3.75075e-011	-3.49177e-011	-3.21288e-011	-2.95376e-011	-2.74007e-011	-2.43508e-011	-2.1564e-011	-1.94899e-011	-1.6894e-011	-1.45502e-011	-1.17574e-011	-9.34972e-012	-7.26933e-012	-4.86025e-012	-2.25405e-012	-2.35719e-013	
CoarseR87	-4.59344e-011	-4.33489e-011	-4.10219e-011	-3.79099e-011	-3.55803e-011	-3.26102e-011	-3.02099e-011	-2.76175e-011	-2.50925e-011	-2.24253e-011	-1.98962e-011	-1.77561e-011	-1.49663e-011	-1.26264e-011	-1.00251e-011	-7.42607e-012	-5.53792e-012	-2.74116e-012	-5.94119e-013	1.94908e-012	3.84199e-012	
CoarseR88	-4.16539e-011	-3.88088e-011	-3.60258e-011	-3.34371e-011	-3.10381e-011	-2.83257e-011	-2.61155e-011	-2.3067e-011	-2.08046e-011	-1.82099e-011	-1.51572e-011	-1.30161e-011	-1.04133e-011	-7.88417e-012	-5.73448e-012	-3.20201e-012	-7.92757e-013	1.61695e-012	3.89663e-012	6.30814e-012	8.59136e-012	
CoarseR89	-3.74126e-011	-3.45595e-011	-3.17816e-011	-2.91926e-011	-2.6602e-011	-2.40792e-011	-2.14131e-011	-1.88921e-011	-1.62927e-011	-1.41528e-011	-1.13632e-011	-8.76591e-012	-6.16531e-012	-3.62978e-012	-1.4846e-012	8.58336e-013	3.65675e-012	6.06735e-012	8.15554e-012	1.05631e-011	1.29117e-011	
CoarseR90	-3.26311e-011	-3.00382e-011	-2.72586e-011	-2.46679e-011	-2.22675e-011	-1.97443e-011	-1.69586e-011	-1.45555e-011	-1.2027e-011	-9.62216e-012	-6.56733e-012	-4.42437e-012	-1.89214e-012	4.48014e-013	3.0527e-012	5.65529e-012	7.99978e-012	1.01487e-011	1.27581e-011	1.46505e-011	1.72575e-011	
CoarseR91	-2.86055e-011	-2.60122e-011	-2.29663e-011	-2.01835e-011	-1.77821e-011	-1.54494e-011	-1.31184e-011	-1.02586e-011	-7.53716e-012	-5.13145e-012	-2.53101e-012	-1.94294e-013	2.14634e-012	4.75068e-012	7.09357e-012	9.50397e-012	1.2043e-011	1.44551e-011	1.6802e-011	1.9152e-011	2.1046e-011	
CoarseR92	-2.42904e-011	-2.158e-011	-1.89145e-011	-1.61302e-011	-1.37978e-011	-1.09386e-011	-8.60613e-012	-5.74537e-012	-3.40893e-012	-1.07209e-012	1.26684e-012	4.13064e-012	6.4717e-012	9.2704e-012	1.14186e-011	1.3763e-011	1.63722e-011	1.82633e-011	2.08709e-011	2.30238e-011	2.53111e-011	
CoarseR93	-2.00208e-011	-1.74303e-011	-1.43817e-011	-1.20503e-011	-9.91144e-012	-6.85913e-012	-4.262e-012	-1.7328e-012	6.73512e-013	3.27472e-012	5.80735e-012	7.95344e-012	1.07522e-011	1.3095e-011	1.55063e-011	1.78533e-011	2.01993e-011	2.2811e-011	2.48979e-011	2.73133e-011	2.94683e-011	
CoarseR94	-1.59931e-011	-1.31353e-011	-1.06135e-011	-8.01796e-012	-5.61443e-012	-2.89483e-012	-4.89371e-013	2.11036e-012	4.97359e-012	6.85576e-012	9.8465e-012	1.19936e-011	1.47939e-011	1.69431e-011	1.95492e-011	2.18975e-011	2.44421e-011	2.61358e-011	2.89446e-011	3.13609e-011	3.32559e-011	
CoarseR95	-1.19407e-011	-9.15533e-012	-6.55953e-012	-3.9638e-012	-1.36602e-012	1.23257e-012	3.56838e-012	6.16906e-012	8.50716e-012	1.08481e-011	1.37142e-011	1.60581e-011	1.86629e-011	2.10074e-011	2.36174e-011	2.58998e-011	2.81166e-011	3.02036e-011	3.28187e-011	3.51702e-011	3.75263e-011	
CoarseR96	-7.93773e-012	-5.27104e-012	-2.48265e-012	-1.49763e-013	2.44829e-012	5.04814e-012	7.64882e-012	9.98641e-012	1.25892e-011	1.49984e-011	1.77291e-011	2.01402e-011	2.29433e-011	2.50928e-011	2.7181e-011	3.00521e-011	3.26002e-011	3.44929e-011	3.66476e-011	3.90006e-011	4.13593e-011	
CoarseR97	-4.10758e-012	-1.5105e-012	1.54322e-012	3.87895e-012	6.21297e-012	9.07727e-012	1.1485e-011	1.40175e-011	1.66216e-011	1.87697e-011	2.15715e-011	2.39143e-011	2.65242e-011	2.88693e-011	3.10226e-011	3.38319e-011	3.59195e-011	3.83368e-011	4.06939e-011	4.25894e-011	4.4749e-011	
CoarseR98	1.23651e-014	3.06609e-012	5.39902e-012	7.99926e-012	1.0406e-011	1.32018e-011	1.54712e-011	1.78811e-011	2.07486e-011	2.30936e-011	2.54358e-011	2.7784e-011	3.03936e-011	3.28049e-011	3.51549e-011	3.74403e-011	3.98578e-011	4.24111e-011	4.43663e-011	4.69226e-011	4.88196e-011	
CoarseR99	3.88689e-012	6.67821e-012	9.01147e-012	1.18061e-011	1.39473e-011	1.67451e-011	1.93498e-011	2.1494e-011	2.42962e-011	2.64466e-011	2.97091e-011	3.13989e-011	3.44045e-011	3.66223e-011	3.8711e-011	4.1064e-011	4.34167e-011	4.57723e-011	4.81924e-011	5.00886e-011	5.29083e-011	
CoarseR100	7.6376e-012	1.02363e-011	1.30315e-011	1.56347e-011	1.82378e-011	2.05758e-011	2.29866e-011	2.55222e-011	2.83264e-011	3.02824e-011	3.30895e-011	3.54346e-011	3.80486e-011	4.05997e-011	4.24913e-011	4.48493e-011	4.72091e-011	4.95706e-011	5.21904e-011	5.40884e-011	5.66519e-011	
MinCout:	1.23651e-014	CoarseR:	98	CoarseC:	140

	FineC0	FineC10	FineC20	FineC30	FineC40	FineC50	FineC60	FineC70	FineC80	FineC90	FineC100	FineC110	FineC120	FineC130	FineC140	FineC150	FineC160	FineC170	FineC180	FineC190	FineC200	FineC210	FineC220	FineC230	FineC240	FineC250	
FineR0	-2.1231e-010	-1.79952e-010	-1.58449e-010	-1.41269e-010	-1.27869e-010	-1.16901e-010	-1.07825e-010	-1.00111e-010	-9.29398e-011	-8.73266e-011	-8.26833e-011	-7.7699e-011	-7.40762e-011	-7.01962e-011	-6.74005e-011	-6.46143e-011	-6.18269e-011	-5.94177e-011	-5.72736e-011	-5.55723e-011	-5.36292e-011	-5.21887e-011	-5.01707e-011	-4.9125e-011	-4.74295e-011	-4.63248e-011	
FineR10	-1.80011e-010	-1.4837e-010	-1.26886e-010	-1.10685e-010	-9.68298e-011	-8.60365e-011	-7.70354e-011	-6.92284e-011	-6.2856e-011	-5.74131e-011	-5.22411e-011	-4.79734e-011	-4.38904e-011	-4.0641e-011	-3.74626e-011	-3.46718e-011	-3.22625e-011	-2.97321e-011	-2.82259e-011	-2.56268e-011	-2.36683e-011	-2.23621e-011	-2.09296e-011	-1.96195e-011	-1.79209e-011	-1.66172e-011	
FineR20	-1.65686e-010	-1.34043e-010	-1.12826e-010	-9.66212e-011	-8.32159e-011	-7.24125e-011	-6.35976e-011	-5.57889e-011	-4.93347e-011	-4.3781e-011	-3.88715e-011	-3.43359e-011	-3.07072e-011	-2.7266e-011	-2.40192e-011	-2.14848e-011	-1.88826e-011	-1.67352e-011	-1.41283e-011	-1.21705e-011	-1.04749e-011	-8.97617e-012	-7.47148e-012	-6.23191e-012	-4.92162e-012	-3.81267e-012	
FineR30	-1.57573e-010	-1.26108e-010	-1.05066e-010	-8.85912e-011	-7.54405e-011	-6.44584e-011	-5.56419e-011	-4.78315e-011	-4.13758e-011	-3.60117e-011	-3.11003e-011	-2.63721e-011	-2.26696e-011	-1.93007e-011	-1.62449e-011	-1.37106e-011	-1.0914e-011	-8.76564e-012	-6.80691e-012	-4.65784e-012	-2.89433e-012	-1.39327e-012	4.19095e-014	1.54474e-012	2.85458e-012	4.16121e-012	
FineR40	-1.524e-010	-1.2075e-010	-9.97008e-011	-8.32296e-011	-7.03455e-011	-5.9729e-011	-5.0465e-011	-4.29199e-011	-3.64632e-011	-3.09073e-011	-2.59196e-011	-2.16475e-011	-1.77535e-011	-1.45761e-011	-1.13272e-011	-8.33627e-012	-5.92588e-012	-3.846e-012	-1.62776e-012	5.23457e-013	2.02384e-012	3.72114e-012	5.22602e-012	6.26957e-012	7.83871e-012	8.88627e-012	
FineR50	-1.48431e-010	-1.17498e-010	-9.62728e-011	-7.97985e-011	-6.68258e-011	-5.60264e-011	-4.67562e-011	-3.9211e-011	-3.25659e-011	-2.73899e-011	-2.24766e-011	-1.79389e-011	-1.45007e-011	-1.08668e-011	-7.61747e-012	-5.08302e-012	-2.67259e-012	-3.30752e-013	2.01477e-012	3.77732e-012	5.47378e-012	6.97513e-012	8.47717e-012	1.00461e-011	1.14844e-011	1.25968e-011	
FineR60	-1.45551e-010	-1.1418e-010	-9.33957e-011	-7.69221e-011	-6.42178e-011	-5.32282e-011	-4.41468e-011	-3.68644e-011	-3.01441e-011	-2.45898e-011	-1.96011e-011	-1.55191e-011	-1.16967e-011	-8.25507e-012	-5.19818e-012	-2.47073e-012	1.33157e-013	2.54499e-012	4.17138e-012	6.39052e-012	8.2811e-012	1.0045e-011	1.1353e-011	1.27907e-011	1.36405e-011	1.52108e-011	
FineR70	-1.43335e-010	-1.12417e-010	-9.13659e-011	-7.5072e-011	-6.19207e-011	-5.10144e-011	-4.23009e-011	-3.48349e-011	-2.83776e-011	-2.24852e-011	-1.75713e-011	-1.34893e-011	-9.59556e-012	-6.2252e-012	-2.97367e-012	-1.77551e-013	2.16328e-012	4.77038e-012	6.53174e-012	8.15956e-012	1.01837e-011	1.20781e-011	1.31211e-011	1.48212e-011	1.61305e-011	1.72412e-011	
FineR80	-1.41648e-010	-1.10713e-010	-8.96614e-011	-7.31879e-011	-6.0034e-011	-4.94995e-011	-4.06782e-011	-3.30571e-011	-2.66005e-011	-2.10446e-011	-1.58658e-011	-1.1592e-011	-8.1537e-012	-4.45009e-012	-1.72558e-012	1.3339e-012	3.67587e-012	6.02016e-012	8.17104e-012	1.00608e-011	1.18241e-011	1.33255e-011	1.48304e-011	1.60712e-011	1.74439e-011	1.8686e-011	
FineR90	-1.40463e-010	-1.09271e-010	-8.82079e-011	-7.20043e-011	-5.90397e-011	-4.80492e-011	-3.92269e-011	-3.16845e-011	-2.54918e-011	-1.96711e-011	-1.46822e-011	-1.03361e-011	-6.51378e-012	-3.52873e-012	1.78572e-013	2.51867e-012	5.1225e-012	7.2714e-012	9.42176e-012	1.10494e-011	1.32704e-011	1.47716e-011	1.62736e-011	1.73198e-011	1.90209e-011	2.01319e-011	
FineR100	-1.39252e-010	-1.08151e-010	-8.70997e-011	-7.08144e-011	-5.76612e-011	-4.68548e-011	-3.83044e-011	-3.05671e-011	-2.43011e-011	-1.84812e-011	-1.34931e-011	-9.21977e-012	-5.51857e-012	-1.95517e-012	6.45882e-013	3.44199e-012	6.04566e-012	8.1277e-012	1.0541e-011	1.22344e-011	1.44551e-011	1.5891e-011	1.71986e-011	1.87014e-011	2.00097e-011	2.1319e-011	
FineR110	-1.38415e-010	-1.07041e-010	-8.64322e-011	-6.99593e-011	-5.65401e-011	-4.6266e-011	-3.69979e-011	-2.96382e-011	-2.32574e-011	-1.73636e-011	-1.29025e-011	-8.36501e-012	-4.66326e-012	-1.02921e-012	1.95861e-012	4.75528e-012	7.16572e-012	9.44182e-012	1.12031e-011	1.33551e-011	1.5052e-011	1.65534e-011	1.80554e-011	1.93633e-011	2.08666e-011	2.21756e-011	
FineR120	-1.37375e-010	-1.06182e-010	-8.55763e-011	-6.91032e-011	-5.59498e-011	-4.54097e-011	-3.60617e-011	-2.85938e-011	-2.23246e-011	-1.69604e-011	-1.17813e-011	-7.24274e-012	-3.87623e-012	-4.34784e-013	2.62261e-012	5.15562e-012	7.76079e-012	1.02994e-011	1.22546e-011	1.42127e-011	1.59097e-011	1.74111e-011	1.89131e-011	2.0483e-011	2.17244e-011	2.27719e-011	
FineR130	-1.36786e-010	-1.05582e-010	-8.45301e-011	-6.82361e-011	-5.52738e-011	-4.45513e-011	-3.57297e-011	-2.81842e-011	-2.17304e-011	-1.59101e-011	-1.11858e-011	-6.91189e-012	-3.28075e-012	3.5352e-013	2.95453e-012	6.01408e-012	8.81304e-012	1.09624e-011	1.28509e-011	1.45446e-011	1.67659e-011	1.84642e-011	1.97717e-011	2.08149e-011	2.20595e-011	2.33655e-011	
FineR140	-1.3618e-010	-1.05074e-010	-8.39281e-011	-6.74553e-011	-5.47589e-011	-4.39523e-011	-3.51359e-011	-2.75899e-011	-2.11331e-011	-1.53132e-011	-1.03251e-011	-6.05179e-012	-2.42173e-012	1.01941e-012	3.74407e-012	6.60941e-012	9.40823e-012	1.15575e-011	1.34457e-011	1.58603e-011	1.70984e-011	1.88616e-011	2.03662e-011	2.16069e-011	2.31775e-011	2.4158e-011	
FineR150	-1.35845e-010	-1.04199e-010	-8.33239e-011	-6.71211e-011	-5.37019e-011	-4.36185e-011	-3.43463e-011	-2.68004e-011	-2.06081e-011	-1.49798e-011	-1.02559e-011	-5.71857e-012	-2.08859e-012	1.80884e-012	4.60311e-012	7.59346e-012	9.74118e-012	1.18904e-011	1.4041e-011	1.61932e-011	1.78902e-011	1.93915e-011	2.08935e-011	2.19396e-011	2.3705e-011	2.48158e-011	
FineR160	-1.35051e-010	-1.03863e-010	-8.29891e-011	-6.67865e-011	-5.36339e-011	-4.28277e-011	-3.40117e-011	-2.64661e-011	-2.00853e-011	-1.41897e-011	-9.65824e-012	-5.38505e-012	-1.29871e-012	1.68559e-012	5.1299e-012	7.73205e-012	1.02682e-011	1.268e-011	1.48307e-011	1.65263e-011	1.8483e-011	1.99191e-011	2.12266e-011	2.27292e-011	2.3776e-011	2.53471e-011	
FineR170	-1.34257e-010	-1.03611e-010	-8.27346e-011	-6.62619e-011	-5.31098e-011	-4.27591e-011	-3.34867e-011	-2.59407e-011	-1.94838e-011	-1.38558e-011	-9.39587e-012	-4.85848e-012	-1.03544e-012	2.47567e-012	5.46344e-012	8.25925e-012	1.06693e-011	1.29448e-011	1.50957e-011	1.68573e-011	1.85541e-011	2.02522e-011	2.15568e-011	2.30626e-011	2.45659e-011	2.5415e-011	
FineR180	-1.34007e-010	-1.02989e-010	-8.22103e-011	-6.57371e-011	-5.26894e-011	-4.19678e-011	-3.29609e-011	-2.54146e-011	-1.92224e-011	-1.35936e-011	-8.60529e-012	-4.33172e-012	-6.30813e-013	2.93308e-012	5.72692e-012	8.78653e-012	1.11966e-011	1.34723e-011	1.52331e-011	1.71227e-011	1.90818e-011	2.05828e-011	2.23468e-011	2.38492e-011	2.48958e-011	2.5943e-011	
FineR190	-1.33923e-010	-1.02736e-010	-8.16857e-011	-6.54805e-011	-5.25083e-011	-4.1708e-011	-3.26258e-011	-2.53415e-011	-1.88851e-011	-1.35215e-011	-8.34249e-012	-4.26055e-012	8.91434e-014	3.26679e-012	6.06081e-012	9.05123e-012	1.11986e-011	1.38059e-011	1.56945e-011	1.76528e-011	1.93476e-011	2.08488e-011	2.26159e-011	2.38568e-011	2.51659e-011	2.64118e-011	
FineR200	-1.33525e-010	-1.02054e-010	-8.15339e-011	-6.53205e-011	-5.2082e-011	-4.13517e-011	-3.27151e-011	-2.47114e-011	-1.82499e-011	-1.31468e-011	-8.22752e-012	-3.87783e-012	1.89271e-014	3.65597e-012	6.64603e-012	9.51347e-012	1.15933e-011	1.42025e-011	1.6355e-011	1.83123e-011	2.00105e-011	2.15127e-011	2.28208e-011	2.40623e-011	2.53716e-011	2.6682e-011	
FineR210	-1.32939e-010	-1.01897e-010	-8.11016e-011	-6.4795e-011	-5.18228e-011	-4.10103e-011	-3.19977e-011	-2.46379e-011	-1.79853e-011	-1.28823e-011	-7.89039e-012	-3.61372e-012	2.82735e-013	3.91982e-012	6.71615e-012	9.77822e-012	1.18582e-011	1.42718e-011	1.64241e-011	1.81188e-011	1.98169e-011	2.17785e-011	2.32816e-011	2.4591e-011	2.59003e-011	2.71434e-011	
FineR220	-1.32854e-010	-1.01643e-010	-8.07522e-011	-6.45369e-011	-5.15568e-011	-4.07496e-011	-3.17367e-011	-2.41848e-011	-1.79123e-011	-1.2355e-011	-7.6272e-012	-3.27849e-012	5.46769e-013	4.25374e-012	7.24345e-012	9.84702e-012	1.24538e-011	1.44685e-011	1.64933e-011	1.86468e-011	2.0345e-011	2.18471e-011	2.36126e-011	2.46592e-011	2.61634e-011	2.72114e-011	
FineR230	-1.32769e-010	-1.01276e-010	-8.06726e-011	-6.4182e-011	-5.14802e-011	-4.02177e-011	-3.16622e-011	-2.41111e-011	-1.765e-011	-1.2018e-011	-7.09842e-012	-3.01422e-012	8.81344e-013	4.06036e-012	7.1191e-012	1.01108e-011	1.2717e-011	1.46716e-011	1.70192e-011	1.89758e-011	2.04765e-011	2.21751e-011	2.36775e-011	2.54431e-011	2.65536e-011	2.7601e-011	
FineR240	-1.32392e-010	-1.0091e-010	-8.03126e-011	-6.40947e-011	-5.06724e-011	-4.03211e-011	-3.13128e-011	-2.37652e-011	-1.73071e-011	-1.16776e-011	-6.68876e-012	-2.41459e-012	1.21603e-012	4.46397e-012	7.83917e-012	1.02484e-011	1.27854e-011	1.51977e-011	1.71527e-011	1.92387e-011	2.1002e-011	2.25032e-011	2.40051e-011	2.50511e-011	2.67525e-011	2.78675e-011	
FineR250	-1.32288e-010	-1.00911e-010	-8.0044e-011	-6.40165e-011	-5.08625e-011	-3.97888e-011	-3.12381e-011	-2.34261e-011	-1.72339e-011	-1.14147e-011	-6.49681e-012	-2.41424e-012	1.7437e-012	4.92138e-012	7.71535e-012	1.07751e-011	1.33118e-011	1.51983e-011	1.76119e-011	1.91112e-011	2.08082e-011	2.30285e-011	2.42713e-011	2.57741e-011	2.68209e-011	2.81308e-011	
MinCout:	1.89271e-014	FineR:	200	FineC:	120

	FineC110	FineC111	FineC112	FineC113	FineC114	FineC115	FineC116	FineC117	FineC118	FineC119	FineC120	FineC121	FineC122	FineC123	FineC124	FineC125	FineC126	FineC127	FineC128	FineC129	FineC130	
FineR160	-5.64881e-012	-5.00027e-012	-4.35159e-012	-4.0879e-012	-4.15869e-012	-3.50983e-012	-2.86083e-012	-2.59724e-012	-1.94814e-012	-1.56242e-012	-1.63291e-012	-1.10586e-012	-4.56449e-013	-4.56449e-013	1.93105e-013	3.16046e-013	5.79458e-013	9.65943e-013	1.42252e-012	1.87932e-012	2.07258e-012	
FineR161	-5.4568e-012	-4.80812e-012	-4.35159e-012	-3.8951e-012	-3.70276e-012	-3.50983e-012	-2.86083e-012	-2.59724e-012	-2.21169e-012	-1.7554e-012	-1.63291e-012	-1.36935e-012	-7.19901e-013	-7.03085e-014	1.93105e-013	3.86283e-013	5.79458e-013	1.03596e-012	1.42252e-012	1.68583e-012	2.07256e-012	
FineR162	-5.19311e-012	-5.00027e-012	-4.35159e-012	-3.8951e-012	-3.70276e-012	-3.0538e-012	-2.86083e-012	-2.59724e-012	-2.21169e-012	-1.7554e-012	-1.56242e-012	-1.17646e-012	-6.49521e-013	-2.63439e-013	-7.03085e-014	3.86283e-013	8.428e-013	1.03595e-012	1.42252e-012	1.87932e-012	1.87904e-012	
FineR163	-5.19311e-012	-4.54447e-012	-4.28075e-012	-4.35159e-012	-3.70276e-012	-3.0538e-012	-2.86126e-012	-2.4047e-012	-2.21169e-012	-1.75519e-012	-1.56242e-012	-9.12997e-013	-4.56474e-013	-4.56449e-013	-7.03085e-014	1.93105e-013	8.428e-013	1.03595e-012	1.49263e-012	1.87932e-012	2.07256e-012	
FineR164	-5.19311e-012	-4.73662e-012	-4.28075e-012	-3.89568e-012	-3.43917e-012	-2.98311e-012	-3.0538e-012	-2.4047e-012	-1.94818e-012	-1.49192e-012	-1.2989e-012	-9.12997e-013	-7.19962e-013	-2.63439e-013	-2.63391e-013	4.56472e-013	8.428e-013	1.03595e-012	1.49263e-012	2.14261e-012	2.14232e-012	
FineR165	-4.92943e-012	-4.54447e-012	-4.28075e-012	-3.89568e-012	-3.43917e-012	-3.0538e-012	-3.0538e-012	-2.59729e-012	-1.75545e-012	-1.49192e-012	-1.03545e-012	-1.1059e-012	-6.49521e-013	-2.63439e-013	1.93094e-013	1.93094e-013	8.42802e-013	1.10614e-012	1.49263e-012	2.14261e-012	2.14261e-012	
FineR166	-4.93009e-012	-4.54456e-012	-4.28075e-012	-3.89568e-012	-3.632e-012	-3.24675e-012	-2.59768e-012	-2.4047e-012	-2.14112e-012	-1.75545e-012	-1.29893e-012	-1.03545e-012	-6.49534e-013	-2.63439e-013	1.93094e-013	3.8626e-013	8.42802e-013	8.42802e-013	1.49265e-012	1.87931e-012	2.14261e-012	
FineR167	-4.92943e-012	-4.73732e-012	-4.28081e-012	-3.89568e-012	-3.43917e-012	-2.79023e-012	-2.52665e-012	-2.14115e-012	-2.14084e-012	-1.49192e-012	-1.29893e-012	-8.42569e-013	-6.49534e-013	0	2.63403e-013	3.8626e-013	8.42802e-013	1.49265e-012	1.94915e-012	1.68583e-012	2.4059e-012	
FineR168	-4.92943e-012	-4.73732e-012	-4.28081e-012	-3.63204e-012	-3.3684e-012	-2.98314e-012	-2.52666e-012	-2.33408e-012	-1.68467e-012	-1.49193e-012	-1.03544e-012	-5.79106e-013	-4.56546e-013	0	2.63403e-013	6.49674e-013	1.10618e-012	1.03594e-012	1.49265e-012	1.94915e-012	2.14264e-012	
FineR169	-4.93015e-012	-4.47363e-012	-4.28081e-012	-3.63204e-012	-3.3684e-012	-2.71954e-012	-2.52666e-012	-2.40476e-012	-1.87761e-012	-1.49193e-012	-1.03544e-012	-5.79106e-013	-3.86071e-013	0	5.26805e-013	6.49674e-013	1.10618e-012	1.36948e-012	1.49265e-012	1.94915e-012	2.4059e-012	
FineR170	-5.12222e-012	-4.47363e-012	-4.01715e-012	-3.89576e-012	-3.3684e-012	-2.98314e-012	-2.3341e-012	-2.3341e-012	-2.14115e-012	-1.49193e-012	-1.03544e-012	-8.42571e-013	-3.86071e-013	-1.93071e-013	5.26805e-013	6.49674e-013	1.10618e-012	1.36948e-012	1.756e-012	2.40597e-012	2.40597e-012	
FineR171	-5.12222e-012	-4.20993e-012	-4.01715e-012	-3.36841e-012	-3.17603e-012	-2.98314e-012	-2.3341e-012	-2.3341e-012	-1.68491e-012	-1.42116e-012	-1.03544e-012	-8.42571e-013	-3.86071e-013	2.63439e-013	5.26805e-013	7.19899e-013	1.17642e-012	1.29949e-012	1.94944e-012	2.21273e-012	2.40597e-012	
FineR172	-4.66643e-012	-4.20993e-012	-3.8249e-012	-3.8249e-012	-3.36841e-012	-2.71953e-012	-2.3341e-012	-2.07053e-012	-1.42135e-012	-1.29915e-012	-1.22841e-012	-5.79072e-013	-3.86071e-013	-1.93071e-013	2.63439e-013	7.19958e-013	1.10635e-012	1.56288e-012	1.94944e-012	1.94944e-012	2.40597e-012	
FineR173	-4.66643e-012	-4.47367e-012	-4.01773e-012	-3.3689e-012	-3.36841e-012	-2.9124e-012	-2.52702e-012	-2.07051e-012	-1.42135e-012	-1.42135e-012	-1.03559e-012	-5.79072e-013	7.04032e-014	7.04032e-014	7.20018e-013	9.13088e-013	1.10635e-012	1.56288e-012	1.82617e-012	2.21281e-012	2.66929e-012	
FineR174	-4.4027e-012	-4.20993e-012	-4.01773e-012	-3.3689e-012	-2.91238e-012	-2.71953e-012	-2.52702e-012	-2.07051e-012	-1.87787e-012	-1.49195e-012	-1.03559e-012	-5.79072e-013	-1.22668e-013	7.04032e-014	7.20018e-013	1.1765e-012	1.1765e-012	1.56288e-012	2.01958e-012	2.21281e-012	2.66929e-012	
FineR175	-4.4027e-012	-3.94624e-012	-4.01773e-012	-3.56123e-012	-2.91238e-012	-2.71992e-012	-2.2634e-012	-2.07051e-012	-1.61432e-012	-1.22858e-012	-7.7205e-013	-5.79038e-013	-1.22609e-013	7.04032e-014	7.9035e-013	7.20018e-013	1.36977e-012	1.82646e-012	1.75627e-012	2.47617e-012	2.6696e-012	
FineR176	-4.4027e-012	-4.4027e-012	-3.75403e-012	-3.29756e-012	-3.3689e-012	-2.91238e-012	-2.2634e-012	-2.0708e-012	-1.68491e-012	-1.42135e-012	-7.7205e-013	-5.79146e-013	-1.22609e-013	5.26972e-013	5.26972e-013	1.17669e-012	1.36977e-012	1.63309e-012	2.01967e-012	2.47617e-012	2.93294e-012	
FineR177	-4.59543e-012	-4.21054e-012	-3.75403e-012	-3.56123e-012	-2.91237e-012	-2.45626e-012	-2.0708e-012	-1.80723e-012	-1.61427e-012	-9.65006e-013	-7.01528e-013	-5.79146e-013	-1.22609e-013	3.33878e-013	7.9035e-013	9.83468e-013	1.36977e-012	1.82655e-012	2.28295e-012	2.47617e-012	2.73939e-012	
FineR178	-4.59543e-012	-3.9468e-012	-3.75403e-012	-3.10521e-012	-2.8416e-012	-2.64874e-012	-2.2634e-012	-1.61427e-012	-1.35076e-012	-9.65006e-013	-5.08515e-013	-5.08515e-013	-1.22609e-013	3.33878e-013	7.9035e-013	9.83468e-013	1.44003e-012	1.82655e-012	2.01967e-012	2.28295e-012	2.47617e-012	
FineR179	-4.59543e-012	-3.9468e-012	-3.49032e-012	-3.29802e-012	-3.10521e-012	-2.45626e-012	-2.00011e-012	-1.80717e-012	-1.35068e-012	-9.65006e-013	-7.72005e-013	-3.15599e-013	1.40901e-013	3.33878e-013	5.26972e-013	9.83468e-013	1.44003e-012	1.6332e-012	2.28307e-012	2.54631e-012	2.6697e-012	
FineR180	-4.40269e-012	-4.13897e-012	-3.75401e-012	-3.2267e-012	-3.10521e-012	-2.45626e-012	-1.99978e-012	-1.80717e-012	-1.61427e-012	-9.65006e-013	-7.72005e-013	-5.08515e-013	1.40901e-013	3.33878e-013	7.90457e-013	9.83468e-013	1.17669e-012	1.89648e-012	2.28307e-012	2.54631e-012	2.93308e-012	
MinCout:	0	FineR:	167	FineC:	123

