	CoarseC0	CoarseC10	CoarseC20	CoarseC30	CoarseC40	CoarseC50	CoarseC60	CoarseC70	CoarseC80	CoarseC90	CoarseC100	CoarseC110	CoarseC120	CoarseC130	CoarseC140	CoarseC150	CoarseC160	CoarseC170	CoarseC180	CoarseC190	CoarseC200	CoarseC210	CoarseC220	CoarseC230	CoarseC240	CoarseC250	
CoarseR0	-1.75944e-009	-1.74546e-009	-1.72694e-009	-1.70292e-009	-1.67486e-009	-1.64452e-009	-1.61064e-009	-1.57386e-009	-1.534e-009	-1.49039e-009	-1.43837e-009	-1.38259e-009	-1.33064e-009	-1.28296e-009	-1.23798e-009	-1.1962e-009	-1.15683e-009	-1.11984e-009	-1.08584e-009	-1.05342e-009	-1.02351e-009	-9.95857e-010	-9.68934e-010	-9.44394e-010	-9.21556e-010	-8.99626e-010	
CoarseR10	-1.3634e-009	-1.34505e-009	-1.32341e-009	-1.298e-009	-1.26946e-009	-1.23816e-009	-1.20414e-009	-1.16688e-009	-1.12593e-009	-1.07664e-009	-1.02192e-009	-9.72134e-010	-9.25617e-010	-8.82897e-010	-8.4231e-010	-8.04284e-010	-7.68474e-010	-7.35623e-010	-7.05274e-010	-6.76337e-010	-6.49507e-010	-6.2456e-010	-6.00827e-010	-5.78881e-010	-5.58191e-010	-5.38779e-010	
CoarseR20	-1.12052e-009	-1.10066e-009	-1.07818e-009	-1.05143e-009	-1.02183e-009	-9.8987e-010	-9.54632e-010	-9.16109e-010	-8.69797e-010	-8.15971e-010	-7.66149e-010	-7.20187e-010	-6.77095e-010	-6.37621e-010	-5.9961e-010	-5.64582e-010	-5.31533e-010	-5.01282e-010	-4.73394e-010	-4.46751e-010	-4.22407e-010	-3.99523e-010	-3.77824e-010	-3.57763e-010	-3.38682e-010	-3.20687e-010	
CoarseR30	-9.56377e-010	-9.34258e-010	-9.10361e-010	-8.82647e-010	-8.52264e-010	-8.18509e-010	-7.81971e-010	-7.40414e-010	-6.86173e-010	-6.35824e-010	-5.89158e-010	-5.46361e-010	-5.05402e-010	-4.6722e-010	-4.31732e-010	-3.98874e-010	-3.68708e-010	-3.40558e-010	-3.14642e-010	-2.89879e-010	-2.6675e-010	-2.45574e-010	-2.25677e-010	-2.0683e-010	-1.88857e-010	-1.72403e-010	
CoarseR40	-8.37543e-010	-8.1391e-010	-7.88363e-010	-7.59517e-010	-7.27499e-010	-6.9243e-010	-6.53748e-010	-6.03699e-010	-5.51323e-010	-5.03672e-010	-4.58994e-010	-4.17483e-010	-3.78056e-010	-3.41963e-010	-3.08313e-010	-2.77662e-010	-2.49341e-010	-2.22808e-010	-1.98303e-010	-1.7489e-010	-1.53469e-010	-1.33497e-010	-1.14205e-010	-9.69021e-011	-8.03642e-011	-6.46987e-011	
CoarseR50	-7.47001e-010	-7.22179e-010	-6.95458e-010	-6.65024e-010	-6.31713e-010	-5.94889e-010	-5.51318e-010	-4.97336e-010	-4.46916e-010	-4.01004e-010	-3.5866e-010	-3.1745e-010	-2.79801e-010	-2.45559e-010	-2.13951e-010	-1.84627e-010	-1.57316e-010	-1.3196e-010	-1.08911e-010	-8.66135e-011	-6.64053e-011	-4.76281e-011	-2.97044e-011	-1.28519e-011	2.90758e-012	1.7434e-011	
CoarseR60	-6.75914e-010	-6.49403e-010	-6.21081e-010	-5.89775e-010	-5.54195e-010	-5.15399e-010	-4.64369e-010	-4.12059e-010	-3.63537e-010	-3.18938e-010	-2.76612e-010	-2.3759e-010	-2.01323e-010	-1.68561e-010	-1.38073e-010	-1.09875e-010	-8.39047e-011	-5.97904e-011	-3.76031e-011	-1.62608e-011	3.11933e-012	2.09855e-011	3.82302e-011	5.39706e-011	6.88567e-011	8.2489e-011	
CoarseR70	-6.18502e-010	-5.90003e-010	-5.607e-010	-5.27522e-010	-4.90819e-010	-4.48344e-010	-3.93044e-010	-3.41971e-010	-2.94673e-010	-2.50769e-010	-2.08998e-010	-1.71707e-010	-1.36785e-010	-1.04842e-010	-7.57221e-011	-4.86643e-011	-2.3577e-011	-7.60897e-013	2.07749e-011	4.10085e-011	5.97461e-011	7.69719e-011	9.33197e-011	1.08397e-010	1.22862e-010	1.35582e-010	
CoarseR80	-5.69882e-010	-5.40253e-010	-5.09565e-010	-4.74987e-010	-4.36318e-010	-3.86836e-010	-3.32573e-010	-2.82642e-010	-2.36429e-010	-1.92568e-010	-1.52222e-010	-1.15967e-010	-8.24197e-011	-5.13803e-011	-2.28478e-011	2.92017e-012	2.71189e-011	4.95472e-011	7.04979e-011	8.98889e-011	1.07469e-010	1.24302e-010	1.39761e-010	1.54199e-010	1.6779e-010	1.80049e-010	
CoarseR90	-5.28805e-010	-4.98171e-010	-4.66191e-010	-4.30077e-010	-3.89285e-010	-3.33995e-010	-2.81027e-010	-2.32468e-010	-1.8611e-010	-1.43326e-010	-1.04078e-010	-6.84591e-011	-3.55334e-011	-5.84026e-012	2.18785e-011	4.68241e-011	7.06559e-011	9.22489e-011	1.11842e-010	1.31042e-010	1.48501e-010	1.64439e-010	1.79047e-010	1.92804e-010	2.05691e-010	2.17516e-010	
CoarseR100	-4.93029e-010	-4.60977e-010	-4.27841e-010	-3.90573e-010	-3.45166e-010	-2.88194e-010	-2.35842e-010	-1.87704e-010	-1.41409e-010	-9.94301e-011	-6.15134e-011	-2.68869e-011	4.96987e-012	3.38558e-011	6.09596e-011	8.57544e-011	1.085e-010	1.295e-010	1.48923e-010	1.67267e-010	1.84061e-010	1.99088e-010	2.13733e-010	2.26828e-010	2.39263e-010	2.5041e-010	
CoarseR110	-4.62726e-010	-4.28705e-010	-3.94462e-010	-3.55387e-010	-3.03967e-010	-2.47653e-010	-1.9641e-010	-1.48209e-010	-1.02422e-010	-6.15148e-011	-2.4202e-011	9.73688e-012	4.08043e-011	6.91478e-011	9.53626e-011	1.19536e-010	1.41698e-010	1.6207e-010	1.81088e-010	1.98991e-010	2.15165e-010	2.29763e-010	2.43468e-010	2.56106e-010	2.68111e-010	2.78781e-010	
CoarseR120	-4.34705e-010	-3.99995e-010	-3.64156e-010	-3.2362e-010	-2.6747e-010	-2.11696e-010	-1.60827e-010	-1.12483e-010	-6.76609e-011	-2.75258e-011	9.02545e-012	4.21659e-011	7.26933e-011	1.00352e-010	1.2622e-010	1.5003e-010	1.71329e-010	1.91259e-010	2.09667e-010	2.26949e-010	2.42385e-010	2.57043e-010	2.70282e-010	2.82191e-010	2.93457e-010	3.0366e-010	
CoarseR130	-4.10557e-010	-3.7443e-010	-3.37543e-010	-2.94978e-010	-2.3486e-010	-1.79756e-010	-1.29504e-010	-8.09786e-011	-3.70802e-011	2.82315e-012	3.88629e-011	7.14041e-011	1.0133e-010	1.28432e-010	1.53939e-010	1.76879e-010	1.97943e-010	2.17254e-010	2.3548e-010	2.52062e-010	2.67314e-010	2.81004e-010	2.94021e-010	3.05426e-010	3.15964e-010	3.25649e-010	
CoarseR140	-3.88377e-010	-3.51249e-010	-3.13118e-010	-2.66188e-010	-2.05724e-010	-1.51303e-010	-1.00346e-010	-5.24067e-011	-9.11258e-012	3.00569e-011	6.54702e-011	9.73973e-011	1.26684e-010	1.53689e-010	1.78569e-010	2.01343e-010	2.21793e-010	2.4089e-010	2.5841e-010	2.74525e-010	2.8935e-010	3.0282e-010	3.15083e-010	3.26224e-010	3.36232e-010	3.45385e-010	
CoarseR150	-3.68222e-010	-3.2994e-010	-2.90457e-010	-2.39207e-010	-1.78939e-010	-1.24776e-010	-7.34172e-011	-2.6222e-011	1.66509e-011	5.47848e-011	8.96329e-011	1.21688e-010	1.50137e-010	1.76981e-010	2.01185e-010	2.23269e-010	2.43783e-010	2.62472e-010	2.79263e-010	2.95168e-010	3.09498e-010	3.22458e-010	3.34447e-010	3.45117e-010	3.54869e-010	3.63207e-010	
CoarseR160	-3.49836e-010	-3.10069e-010	-2.69734e-010	-2.13855e-010	-1.54429e-010	-1.00732e-010	-4.88636e-011	-2.09639e-012	4.03017e-011	7.78286e-011	1.12489e-010	1.43452e-010	1.72007e-010	1.98478e-010	2.21765e-010	2.43921e-010	2.64024e-010	2.822e-010	2.98812e-010	3.14514e-010	3.28316e-010	3.40719e-010	3.52234e-010	3.62123e-010	3.71532e-010	3.79302e-010	
CoarseR170	-3.33027e-010	-2.92346e-010	-2.50155e-010	-1.90939e-010	-1.31809e-010	-7.75264e-011	-2.61139e-011	1.99887e-011	6.1462e-011	9.89715e-011	1.328e-010	1.63864e-010	1.92254e-010	2.17804e-010	2.41433e-010	2.62946e-010	2.82537e-010	3.00472e-010	3.16621e-010	3.31563e-010	3.45357e-010	3.57228e-010	3.68443e-010	3.7799e-010	3.86631e-010	3.94027e-010	
CoarseR180	-3.1734e-010	-2.75686e-010	-2.32052e-010	-1.7005e-010	-1.10852e-010	-5.65723e-011	-5.48307e-012	4.01099e-011	8.11678e-011	1.18729e-010	1.52398e-010	1.82673e-010	2.10671e-010	2.36028e-010	2.59185e-010	2.80178e-010	2.99347e-010	3.17364e-010	3.33211e-010	3.47925e-010	3.61191e-010	3.73033e-010	3.83182e-010	3.92704e-010	4.00444e-010	4.07258e-010	
CoarseR190	-3.02481e-010	-2.59891e-010	-2.14696e-010	-1.50552e-010	-9.14973e-011	-3.65186e-011	1.40237e-011	5.90235e-011	9.97921e-011	1.3666e-010	1.69953e-010	2.00041e-010	2.27853e-010	2.52795e-010	2.75782e-010	2.96333e-010	3.15502e-010	3.33008e-010	3.48384e-010	3.62532e-010	3.75536e-010	3.87135e-010	3.97179e-010	4.05791e-010	4.13488e-010	4.19412e-010	
CoarseR200	-2.88906e-010	-2.45035e-010	-1.96455e-010	-1.3217e-010	-7.36872e-011	-1.82407e-011	3.17303e-011	7.65834e-011	1.17052e-010	1.53196e-010	1.86103e-010	2.16484e-010	2.43449e-010	2.68439e-010	2.91207e-010	3.11556e-010	3.3049e-010	3.47509e-010	3.62796e-010	3.76941e-010	3.89363e-010	4.00368e-010	4.09882e-010	4.17872e-010	4.25464e-010	4.30773e-010	
CoarseR210	-2.76041e-010	-2.31073e-010	-1.79364e-010	-1.15226e-010	-5.63455e-011	-9.79414e-013	4.86444e-011	9.33834e-011	1.33084e-010	1.69244e-010	2.02224e-010	2.31716e-010	2.58948e-010	2.83501e-010	3.05814e-010	3.26185e-010	3.44342e-010	3.61595e-010	3.76387e-010	3.90176e-010	4.02083e-010	4.12734e-010	4.22122e-010	4.29825e-010	4.36239e-010	4.41152e-010	
CoarseR220	-2.6401e-010	-2.18293e-010	-1.63203e-010	-9.89886e-011	-4.04796e-011	1.50451e-011	6.43146e-011	1.08831e-010	1.4854e-010	1.84306e-010	2.17001e-010	2.4632e-010	2.7299e-010	2.9731e-010	3.19418e-010	3.3954e-010	3.57929e-010	3.74116e-010	3.88895e-010	4.02431e-010	4.14215e-010	4.24305e-010	4.33052e-010	4.40694e-010	4.46152e-010	4.5066e-010	
CoarseR230	-2.52657e-010	-2.06146e-010	-1.48063e-010	-8.43239e-011	-2.46164e-011	3.00553e-011	7.91991e-011	1.22981e-010	1.6265e-010	1.98263e-010	2.30404e-010	2.59845e-010	2.86329e-010	3.10183e-010	3.32304e-010	3.52432e-010	3.70085e-010	3.86486e-010	4.00993e-010	4.13903e-010	4.25386e-010	4.35358e-010	4.43453e-010	4.50435e-010	4.55482e-010	4.59337e-010	
CoarseR240	-2.42215e-010	-1.9445e-010	-1.34343e-010	-7.06994e-011	-1.08397e-011	4.42956e-011	9.26054e-011	1.36326e-010	1.7578e-010	2.10989e-010	2.43251e-010	2.72164e-010	2.98526e-010	3.22393e-010	3.44522e-010	3.64148e-010	3.81678e-010	3.97582e-010	4.12031e-010	4.24902e-010	4.36006e-010	4.45662e-010	4.53181e-010	4.59422e-010	4.64286e-010	4.66635e-010	
CoarseR250	-2.31672e-010	-1.832e-010	-1.207e-010	-5.73261e-011	2.77005e-012	5.75763e-011	1.05958e-010	1.49304e-010	1.88765e-010	2.23933e-010	2.55534e-010	2.84421e-010	3.10356e-010	3.34229e-010	3.56086e-010	3.75462e-010	3.9331e-010	4.08576e-010	4.22416e-010	4.35219e-010	4.46004e-010	4.54992e-010	4.62366e-010	4.68525e-010	4.71934e-010	4.7353e-010	
MinCout:	-7.60897e-013	CoarseR:	70	CoarseC:	170

	CoarseC120	CoarseC121	CoarseC122	CoarseC123	CoarseC124	CoarseC125	CoarseC126	CoarseC127	CoarseC128	CoarseC129	CoarseC130	CoarseC131	CoarseC132	CoarseC133	CoarseC134	CoarseC135	CoarseC136	CoarseC137	CoarseC138	CoarseC139	CoarseC140	
CoarseR80	-8.21453e-011	-7.93325e-011	-7.58114e-011	-7.25341e-011	-6.94581e-011	-6.69103e-011	-6.33701e-011	-6.07518e-011	-5.70855e-011	-5.44648e-011	-5.13803e-011	-4.85517e-011	-4.59281e-011	-4.26491e-011	-4.00856e-011	-3.69987e-011	-3.44319e-011	-3.13382e-011	-2.89647e-011	-2.59454e-011	-2.33716e-011	
CoarseR81	-7.7388e-011	-7.41131e-011	-7.07792e-011	-6.75016e-011	-6.46958e-011	-6.18764e-011	-5.87966e-011	-5.57155e-011	-5.2252e-011	-4.94261e-011	-4.68037e-011	-4.3975e-011	-4.09655e-011	-3.78758e-011	-3.50461e-011	-3.19542e-011	-2.91949e-011	-2.67571e-011	-2.41863e-011	-2.08968e-011	-1.85206e-011	
CoarseR82	-7.2399e-011	-6.9135e-011	-6.60477e-011	-6.27804e-011	-5.98919e-011	-5.68125e-011	-5.38005e-011	-5.09885e-011	-4.75114e-011	-4.46188e-011	-4.20608e-011	-3.90508e-011	-3.61556e-011	-3.33234e-011	-3.05039e-011	-2.76688e-011	-2.48427e-011	-2.2212e-011	-1.96406e-011	-1.66068e-011	-1.37743e-011	
CoarseR83	-6.75689e-011	-6.42932e-011	-6.10263e-011	-5.77577e-011	-5.49387e-011	-5.23192e-011	-4.85841e-011	-4.62224e-011	-4.2676e-011	-3.98593e-011	-3.72246e-011	-3.4213e-011	-3.13816e-011	-2.87537e-011	-2.57272e-011	-2.27085e-011	-2.00677e-011	-1.72384e-011	-1.46055e-011	-1.15709e-011	-9.19388e-012	
CoarseR84	-6.25812e-011	-5.97669e-011	-5.64984e-011	-5.32281e-011	-5.03382e-011	-4.73263e-011	-4.40515e-011	-4.14281e-011	-3.79492e-011	-3.50551e-011	-3.24957e-011	-2.96743e-011	-2.70375e-011	-2.40206e-011	-2.11223e-011	-1.81649e-011	-1.52646e-011	-1.28907e-011	-1.00587e-011	-7.0231e-012	-4.64551e-012	
CoarseR85	-5.82908e-011	-5.52116e-011	-5.18625e-011	-4.84715e-011	-4.55806e-011	-4.29594e-011	-3.97529e-011	-3.68595e-011	-3.35802e-011	-3.07528e-011	-2.8126e-011	-2.48423e-011	-2.22787e-011	-1.93806e-011	-1.66206e-011	-1.37839e-011	-1.09573e-011	-8.31885e-012	-5.74965e-012	-2.64772e-012	-7.04281e-014	
CoarseR86	-5.34475e-011	-5.01776e-011	-4.70976e-011	-4.40872e-011	-4.11955e-011	-3.81115e-011	-3.49037e-011	-3.24714e-011	-2.8729e-011	-2.617e-011	-2.32735e-011	-2.0518e-011	-1.7424e-011	-1.4793e-011	-1.14998e-011	-8.93361e-012	-6.09485e-012	-3.72649e-012	-1.0837e-012	1.94699e-012	4.52517e-012	
CoarseR87	-4.90946e-011	-4.58235e-011	-4.25505e-011	-3.95393e-011	-3.64551e-011	-3.38313e-011	-3.02827e-011	-2.76566e-011	-2.44437e-011	-2.1547e-011	-1.89856e-011	-1.58938e-011	-1.33289e-011	-1.02325e-011	-7.6669e-012	-4.56784e-012	-1.80136e-012	6.4081e-013	3.41094e-012	6.51577e-012	8.62861e-012	
CoarseR88	-4.4603e-011	-4.15224e-011	-3.82477e-011	-3.4966e-011	-3.2337e-011	-2.95199e-011	-2.62388e-011	-2.36067e-011	-2.01285e-011	-1.74991e-011	-1.44056e-011	-1.18433e-011	-8.74712e-012	-6.3764e-012	-3.35038e-012	-5.12145e-013	2.78451e-012	5.16039e-012	7.9986e-012	1.03768e-011	1.29567e-011	
CoarseR89	-4.02723e-011	-3.67279e-011	-3.39098e-011	-3.04388e-011	-2.75447e-011	-2.49908e-011	-2.17079e-011	-1.9344e-011	-1.57898e-011	-1.29645e-011	-1.0329e-011	-7.50067e-012	-4.60003e-012	-1.83733e-012	9.95925e-013	3.83136e-012	6.67144e-012	9.24323e-012	1.16209e-011	1.49236e-011	1.75656e-011	
CoarseR90	-3.59902e-011	-3.27137e-011	-2.96288e-011	-2.65377e-011	-2.34503e-011	-2.08235e-011	-1.75364e-011	-1.49814e-011	-1.14963e-011	-8.66919e-012	-6.03636e-012	-3.2031e-012	-5.68294e-013	2.53172e-012	5.29804e-012	7.93901e-012	1.09726e-011	1.36127e-011	1.61908e-011	1.88357e-011	2.14144e-011	
CoarseR91	-3.16104e-011	-2.83324e-011	-2.52464e-011	-2.19624e-011	-1.93351e-011	-1.65134e-011	-1.32248e-011	-1.05943e-011	-7.10815e-012	-4.47548e-012	-1.64564e-012	1.1881e-012	4.01942e-012	6.58963e-012	9.49425e-012	1.22636e-011	1.53694e-011	1.7481e-011	2.0324e-011	2.29694e-011	2.58152e-011	
CoarseR92	-2.70118e-011	-2.41935e-011	-2.0912e-011	-1.76287e-011	-1.50001e-011	-1.23691e-011	-9.08017e-012	-5.98731e-012	-2.96261e-012	-3.99296e-013	2.69952e-012	5.33565e-012	8.17142e-012	1.10055e-011	1.35782e-011	1.66152e-011	1.92569e-011	2.20998e-011	2.42823e-011	2.70607e-011	2.97066e-011	
CoarseR93	-2.31153e-011	-1.98342e-011	-1.67458e-011	-1.3729e-011	-1.07107e-011	-7.81156e-012	-4.52152e-012	-2.08396e-012	1.1371e-012	3.96878e-012	6.87199e-012	9.44026e-012	1.20787e-011	1.5113e-011	1.77536e-011	2.05256e-011	2.33687e-011	2.60128e-011	2.85937e-011	3.12398e-011	3.40889e-011	
CoarseR94	-1.88096e-011	-1.57211e-011	-1.26292e-011	-9.61147e-012	-6.51865e-012	-3.88672e-012	-8.63621e-013	1.96628e-012	5.52809e-012	7.89722e-012	1.07321e-011	1.35666e-011	1.62062e-011	1.87788e-011	2.20828e-011	2.44595e-011	2.75011e-011	2.96831e-011	3.25307e-011	3.53746e-011	3.79598e-011	
CoarseR95	-1.49413e-011	-1.1849e-011	-8.75812e-012	-5.47142e-012	-2.64517e-012	-1.1962e-014	3.27948e-012	5.91474e-012	9.40539e-012	1.17769e-011	1.44141e-011	1.74487e-011	2.00208e-011	2.26632e-011	2.5969e-011	2.85467e-011	3.13884e-011	3.35723e-011	3.6353e-011	3.92665e-011	4.15883e-011	
CoarseR96	-1.0782e-011	-7.49557e-012	-4.40087e-012	-1.38111e-012	1.44687e-012	4.34876e-012	7.37398e-012	9.81408e-012	1.3306e-011	1.58735e-011	1.85136e-011	2.1619e-011	2.39262e-011	2.7033e-011	2.96097e-011	3.27185e-011	3.52987e-011	3.76819e-011	4.05303e-011	4.31805e-011	4.55035e-011	
CoarseR97	-6.67294e-012	-3.38457e-012	-4.84456e-013	2.53632e-012	5.63314e-012	8.26877e-012	1.1295e-011	1.41297e-011	1.72292e-011	2.0067e-011	2.27082e-011	2.52801e-011	2.8123e-011	3.09623e-011	3.38085e-011	3.63854e-011	3.92314e-011	4.18807e-011	4.4201e-011	4.73157e-011	4.94411e-011	
CoarseR98	-2.54388e-012	5.52582e-013	3.3761e-012	6.39822e-012	9.03418e-012	1.23308e-011	1.53586e-011	1.78008e-011	2.10296e-011	2.36714e-011	2.67785e-011	2.91525e-011	3.19969e-011	3.46386e-011	3.76847e-011	4.02651e-011	4.29147e-011	4.52964e-011	4.83497e-011	5.0734e-011	5.33232e-011	
CoarseR99	1.33792e-012	4.1634e-012	6.99231e-012	1.02827e-011	1.29198e-011	1.60206e-011	1.88523e-011	2.14234e-011	2.49928e-011	2.73647e-011	3.02073e-011	3.28472e-011	3.56929e-011	3.87393e-011	4.11178e-011	4.3961e-011	4.68135e-011	4.91957e-011	5.17875e-011	5.46398e-011	5.7026e-011	
CoarseR100	5.04379e-012	7.79652e-012	1.06998e-011	1.39963e-011	1.68246e-011	1.96618e-011	2.29635e-011	2.51353e-011	2.86325e-011	3.14752e-011	3.41205e-011	3.67607e-011	3.96079e-011	4.21844e-011	4.50351e-011	4.7879e-011	5.04627e-011	5.31157e-011	5.57029e-011	5.83581e-011	6.06856e-011	
MinCout:	-1.1962e-014	CoarseR:	95	CoarseC:	125

	FineC0	FineC10	FineC20	FineC30	FineC40	FineC50	FineC60	FineC70	FineC80	FineC90	FineC100	FineC110	FineC120	FineC130	FineC140	FineC150	FineC160	FineC170	FineC180	FineC190	FineC200	FineC210	FineC220	FineC230	FineC240	FineC250	
FineR0	-2.26576e-010	-1.8908e-010	-1.65039e-010	-1.46555e-010	-1.32347e-010	-1.20503e-010	-1.1087e-010	-1.02855e-010	-9.5608e-011	-8.99917e-011	-8.49478e-011	-8.03605e-011	-7.62298e-011	-7.27474e-011	-6.96585e-011	-6.68382e-011	-6.40011e-011	-6.1831e-011	-5.98511e-011	-5.76783e-011	-5.59659e-011	-5.44471e-011	-5.26687e-011	-5.11483e-011	-5.00891e-011	-4.85042e-011	
FineR10	-1.9407e-010	-1.57464e-010	-1.33595e-010	-1.15636e-010	-1.01142e-010	-8.98288e-011	-7.99913e-011	-7.23447e-011	-6.53571e-011	-5.96532e-011	-5.48742e-011	-5.02815e-011	-4.63382e-011	-4.26691e-011	-3.98364e-011	-3.65473e-011	-3.44409e-011	-3.1998e-011	-2.98225e-011	-2.75794e-011	-2.61237e-011	-2.43433e-011	-2.28222e-011	-2.17629e-011	-2.02405e-011	-1.91798e-011	
FineR20	-1.7982e-010	-1.43205e-010	-1.19604e-010	-1.01911e-010	-8.75884e-011	-7.60058e-011	-6.66136e-011	-5.85141e-011	-5.19744e-011	-4.60776e-011	-4.11041e-011	-3.67008e-011	-3.27564e-011	-2.95394e-011	-2.62501e-011	-2.34207e-011	-2.09789e-011	-1.83398e-011	-1.64252e-011	-1.47115e-011	-1.27269e-011	-1.09444e-011	-9.61837e-012	-8.36376e-012	-7.10524e-012	-5.71424e-012	
FineR30	-1.712e-010	-1.34866e-010	-1.11263e-010	-9.35685e-011	-7.95115e-011	-6.81113e-011	-5.82663e-011	-5.08899e-011	-4.38144e-011	-3.81899e-011	-3.32129e-011	-2.86168e-011	-2.46717e-011	-2.14537e-011	-1.81626e-011	-1.5791e-011	-1.31529e-011	-1.07092e-011	-8.53179e-012	-6.81554e-012	-5.29562e-012	-3.57695e-012	-1.79227e-012	-4.65857e-013	5.94288e-013	1.91793e-012	
FineR40	-1.65782e-010	-1.29614e-010	-1.05834e-010	-8.84957e-011	-7.45303e-011	-6.2943e-011	-5.3548e-011	-4.56338e-011	-3.9093e-011	-3.29302e-011	-2.79542e-011	-2.33575e-011	-1.96804e-011	-1.63884e-011	-1.30971e-011	-1.05304e-011	-7.69647e-012	-5.51975e-012	-3.53712e-012	-1.5553e-012	1.62542e-013	1.68337e-012	3.47134e-012	4.5281e-012	6.054e-012	6.91542e-012	
FineR50	-1.6212e-010	-1.25946e-010	-1.02338e-010	-8.45496e-011	-7.0956e-011	-5.91777e-011	-4.99752e-011	-4.18688e-011	-3.51376e-011	-2.94361e-011	-2.46511e-011	-2.03201e-011	-1.6109e-011	-1.26956e-011	-1.00588e-011	-6.76431e-012	-4.58935e-012	-2.21586e-012	-3.74598e-014	1.74862e-012	3.4666e-012	4.98741e-012	6.50893e-012	7.83481e-012	9.35843e-012	1.02196e-011	
FineR60	-1.59195e-010	-1.233e-010	-9.96913e-011	-8.18986e-011	-6.78523e-011	-5.64494e-011	-4.71337e-011	-3.92191e-011	-3.24875e-011	-2.67855e-011	-2.19978e-011	-1.7669e-011	-1.37233e-011	-9.9709e-012	-6.94578e-012	-4.30746e-012	-1.47289e-012	4.38969e-013	2.88264e-012	4.40175e-012	6.11996e-012	7.64082e-012	9.36148e-012	1.04211e-011	1.20124e-011	1.28734e-011	
FineR70	-1.5724e-010	-1.20789e-010	-9.74492e-011	-8.00281e-011	-6.57915e-011	-5.46574e-011	-4.48025e-011	-3.71622e-011	-3.04267e-011	-2.47226e-011	-1.9937e-011	-1.53399e-011	-1.16625e-011	-8.10496e-012	-4.88282e-012	-2.24639e-012	3.22822e-013	2.50005e-012	4.67877e-012	6.3961e-012	8.1829e-012	9.70373e-012	1.14231e-011	1.2749e-011	1.38093e-011	1.53979e-011	
FineR80	-1.55509e-010	-1.19246e-010	-9.57189e-011	-7.81168e-011	-6.40609e-011	-5.29268e-011	-4.35346e-011	-3.54311e-011	-2.88892e-011	-2.29931e-011	-1.80128e-011	-1.38766e-011	-9.6645e-012	-6.17803e-012	-3.41846e-012	-5.14487e-013	2.32053e-012	4.23206e-012	6.41091e-012	7.93009e-012	9.64857e-012	1.11695e-011	1.29564e-011	1.44816e-011	1.5342e-011	1.66677e-011	
FineR90	-1.54212e-010	-1.17767e-010	-9.44345e-011	-7.6915e-011	-6.28568e-011	-5.17251e-011	-4.20624e-011	-3.44974e-011	-2.74181e-011	-2.17897e-011	-1.67355e-011	-1.24066e-011	-8.4613e-012	-5.24249e-012	-1.94908e-012	8.84062e-013	3.32682e-012	5.23802e-012	7.41676e-012	9.597e-012	1.13827e-011	1.28369e-011	1.42282e-011	1.54841e-011	1.701e-011	1.83361e-011	
FineR100	-1.53093e-010	-1.16645e-010	-9.35819e-011	-7.55159e-011	-6.14595e-011	-5.03256e-011	-4.09327e-011	-3.32867e-011	-2.62868e-011	-2.06578e-011	-1.57975e-011	-1.14684e-011	-7.32792e-012	-3.84207e-012	-7.43927e-013	1.62636e-012	4.26464e-012	6.63984e-012	8.55206e-012	1.05342e-011	1.25192e-011	1.43057e-011	1.53644e-011	1.66897e-011	1.79465e-011	1.92726e-011	
FineR110	-1.5195e-010	-1.15777e-010	-9.21677e-011	-7.45674e-011	-6.07826e-011	-4.94647e-011	-3.98e-011	-3.21535e-011	-2.53437e-011	-1.97154e-011	-1.46611e-011	-1.03321e-011	-6.38688e-012	-3.16812e-012	1.25568e-013	2.76288e-012	5.13533e-012	7.50879e-012	9.68778e-012	1.14734e-011	1.31919e-011	1.47127e-011	1.63031e-011	1.77589e-011	1.90846e-011	2.02111e-011	
FineR120	-1.50802e-010	-1.14735e-010	-9.12987e-011	-7.39693e-011	-5.97293e-011	-4.85105e-011	-3.91172e-011	-3.10904e-011	-2.4742e-011	-1.88454e-011	-1.40586e-011	-9.46123e-012	-5.7837e-012	-1.83484e-012	9.96534e-013	3.63329e-012	6.27153e-012	8.64615e-012	1.08251e-011	1.2078e-011	1.41301e-011	1.55834e-011	1.71049e-011	1.84303e-011	1.97559e-011	2.10135e-011	
FineR130	-1.50204e-010	-1.1431e-010	-9.06989e-011	-7.2907e-011	-5.90416e-011	-4.74466e-011	-3.83229e-011	-3.06771e-011	-2.38675e-011	-1.80474e-011	-1.29924e-011	-8.85669e-012	-4.91172e-012	-1.69311e-012	1.60049e-012	4.43383e-012	6.60989e-012	8.78715e-012	1.11641e-011	1.31462e-011	1.46661e-011	1.66521e-011	1.79768e-011	1.9499e-011	2.0559e-011	2.16851e-011	
FineR140	-1.49588e-010	-1.13696e-010	-9.00871e-011	-7.22965e-011	-5.8511e-011	-4.71078e-011	-3.7715e-011	-2.96115e-011	-2.30697e-011	-1.76353e-011	-1.2581e-011	-8.05697e-012	-4.11152e-012	-8.92453e-013	2.20542e-012	5.30556e-012	7.2144e-012	9.58922e-012	1.15702e-011	1.37503e-011	1.5469e-011	1.67931e-011	1.85806e-011	2.01027e-011	2.11626e-011	2.2489e-011	
FineR150	-1.4897e-010	-1.12908e-010	-8.92968e-011	-7.19568e-011	-5.77171e-011	-4.63125e-011	-3.73759e-011	-2.92725e-011	-2.27309e-011	-1.70285e-011	-1.20478e-011	-7.45051e-012	-3.77304e-012	-4.82413e-013	2.54381e-012	5.64393e-012	8.21274e-012	1.03904e-011	1.21749e-011	1.40885e-011	1.58746e-011	1.78603e-011	1.89188e-011	2.04408e-011	2.15007e-011	2.28271e-011	
FineR160	-1.48719e-010	-1.12551e-010	-8.92174e-011	-7.11535e-011	-5.75603e-011	-4.64291e-011	-3.67664e-011	-2.89332e-011	-2.21978e-011	-1.67633e-011	-1.17088e-011	-7.11163e-012	-3.43424e-012	3.19208e-013	3.14965e-012	5.98262e-012	8.62087e-012	1.07289e-011	1.2908e-011	1.46935e-011	1.66782e-011	1.81988e-011	1.94541e-011	2.07792e-011	2.23022e-011	2.34313e-011	
FineR170	-1.48098e-010	-1.11934e-010	-8.86026e-011	-7.10846e-011	-5.70287e-011	-4.56262e-011	-3.62331e-011	-2.83996e-011	-2.18579e-011	-1.59611e-011	-1.11747e-011	-6.84518e-012	-2.63227e-012	8.53826e-013	3.41723e-012	6.51746e-012	8.88909e-012	1.13329e-011	1.3245e-011	1.52287e-011	1.67484e-011	1.84681e-011	1.99895e-011	2.13147e-011	2.28378e-011	2.37011e-011	
FineR180	-1.47844e-010	-1.11678e-010	-8.83317e-011	-7.07336e-011	-5.64958e-011	-4.5093e-011	-3.59697e-011	-2.80556e-011	-2.1515e-011	-1.54268e-011	-1.08336e-011	-6.237e-012	-2.2925e-012	9.25809e-013	4.21934e-012	6.78559e-012	9.42424e-012	1.14053e-011	1.35839e-011	1.57641e-011	1.72839e-011	1.90732e-011	2.03282e-011	2.18507e-011	2.31764e-011	2.4503e-011	
FineR190	-1.47037e-010	-1.11147e-010	-8.77165e-011	-7.0201e-011	-5.61544e-011	-4.45596e-011	-3.5436e-011	-2.77911e-011	-2.09809e-011	-1.53531e-011	-1.05672e-011	-5.97008e-012	-2.02516e-012	1.46082e-012	4.55822e-012	7.12398e-012	9.95959e-012	1.2137e-011	1.41195e-011	1.61011e-011	1.78195e-011	1.934e-011	2.06643e-011	2.21867e-011	2.32463e-011	2.43067e-011	
FineR200	-1.46949e-010	-1.10889e-010	-8.7731e-011	-6.9941e-011	-5.6076e-011	-4.42967e-011	-3.50904e-011	-2.7257e-011	-2.07155e-011	-1.5013e-011	-9.95905e-012	-5.63016e-012	-1.68539e-012	1.99602e-012	4.75543e-012	7.65938e-012	1.0299e-011	1.24763e-011	1.46552e-011	1.61039e-011	1.80892e-011	1.9876e-011	2.09343e-011	2.25257e-011	2.37824e-011	2.51085e-011	
FineR210	-1.46418e-010	-1.10531e-010	-8.71985e-011	-6.94069e-011	-5.56227e-011	-4.42195e-011	-3.48259e-011	-2.71816e-011	-2.06408e-011	-1.45523e-011	-9.49757e-012	-5.09433e-012	-1.41752e-012	2.06817e-012	5.36167e-012	7.92777e-012	1.01035e-011	1.25473e-011	1.47259e-011	1.64432e-011	1.84257e-011	1.99461e-011	2.12708e-011	2.29926e-011	2.38522e-011	2.51787e-011	
FineR220	-1.46254e-010	-1.10085e-010	-8.6653e-011	-6.91363e-011	-5.52726e-011	-4.38715e-011	-3.47497e-011	-2.67229e-011	-1.99121e-011	-1.42097e-011	-9.42402e-012	-4.82706e-012	-1.14991e-012	2.33597e-012	5.4336e-012	7.99936e-012	1.06377e-011	1.28147e-011	1.49933e-011	1.67104e-011	1.84962e-011	2.02157e-011	2.14711e-011	2.30625e-011	2.43193e-011	2.56455e-011	
FineR230	-1.45889e-010	-1.1e-010	-8.6393e-011	-6.88748e-011	-5.50099e-011	-4.34153e-011	-3.42921e-011	-2.6378e-011	-1.98373e-011	-1.41356e-011	-9.35036e-012	-4.55887e-012	-1.07718e-012	2.60399e-012	5.70137e-012	8.26701e-012	1.09065e-011	1.30837e-011	1.52625e-011	1.69798e-011	1.87657e-011	2.04829e-011	2.20737e-011	2.31325e-011	2.4655e-011	2.59815e-011	
FineR240	-1.46077e-010	-1.0964e-010	-8.6311e-011	-6.85229e-011	-5.47396e-011	-4.33379e-011	-3.42156e-011	-2.63024e-011	-1.93024e-011	-1.3869e-011	-8.62053e-012	-4.48564e-012	-5.41581e-013	2.67638e-012	5.96977e-012	8.53564e-012	1.11741e-011	1.33513e-011	1.53335e-011	1.75135e-011	1.90331e-011	2.07527e-011	2.20777e-011	2.35997e-011	2.46594e-011	2.62519e-011	
FineR250	-1.45637e-010	-1.09194e-010	-8.60509e-011	-6.83423e-011	-5.47477e-011	-4.28816e-011	-3.38692e-011	-2.58433e-011	-1.93024e-011	-1.36003e-011	-8.81506e-012	-4.48621e-012	-7.83818e-014	3.21166e-012	5.97021e-012	9.07029e-012	1.12457e-011	1.36205e-011	1.5601e-011	1.75844e-011	1.91037e-011	2.08232e-011	2.23444e-011	2.36699e-011	2.51924e-011	2.62526e-011	
MinCout:	-3.74598e-014	FineR:	50	FineC:	180

	FineC120	FineC121	FineC122	FineC123	FineC124	FineC125	FineC126	FineC127	FineC128	FineC129	FineC130	FineC131	FineC132	FineC133	FineC134	FineC135	FineC136	FineC137	FineC138	FineC139	FineC140	
FineR170	-2.82717e-012	-2.16945e-012	-2.04657e-012	-1.77904e-012	-1.31622e-012	-1.12101e-012	-6.58184e-013	-4.62832e-013	1.95487e-013	3.90997e-013	5.86495e-013	1.0495e-012	1.31678e-012	1.70814e-012	2.17099e-012	1.90374e-012	2.56256e-012	2.75862e-012	3.22153e-012	3.48867e-012	3.68438e-012	
FineR171	-2.89986e-012	-2.63227e-012	-1.97442e-012	-1.97442e-012	-1.58388e-012	-1.12101e-012	-6.58184e-013	-4.62832e-013	1.95487e-013	6.58329e-013	3.90997e-013	1.3168e-012	1.0495e-012	1.70814e-012	2.17099e-012	2.17099e-012	2.82978e-012	2.82974e-012	3.02541e-012	3.22153e-012	3.68438e-012	
FineR172	-2.89986e-012	-2.63227e-012	-1.97442e-012	-1.51159e-012	-1.31642e-012	-8.53587e-013	-1.95438e-013	-4.62832e-013	1.95487e-013	4.62831e-013	8.5395e-013	1.3168e-012	1.3168e-012	1.70814e-012	2.17099e-012	2.36692e-012	2.82978e-012	3.02586e-012	3.48872e-012	3.48867e-012	3.88064e-012	
FineR173	-2.63232e-012	-2.36476e-012	-1.70694e-012	-1.77909e-012	-1.31642e-012	-8.53587e-013	-6.58283e-013	-4.62832e-013	1.95487e-013	1.95487e-013	8.5395e-013	1.12126e-012	1.3168e-012	1.97542e-012	1.97538e-012	2.36692e-012	2.63413e-012	2.82978e-012	3.48872e-012	3.48872e-012	3.68438e-012	
FineR174	-2.82759e-012	-2.36476e-012	-1.70694e-012	-1.97442e-012	-1.31642e-012	-8.53587e-013	-4.62857e-013	-1.95438e-013	0	3.90973e-013	6.58329e-013	1.3168e-012	1.51235e-012	1.97542e-012	2.17099e-012	2.17099e-012	2.82978e-012	2.82978e-012	3.48872e-012	3.48872e-012	4.14781e-012	
FineR175	-2.63232e-012	-2.16977e-012	-1.70694e-012	-1.70694e-012	-1.04897e-012	-8.53587e-013	-4.62857e-013	-1.95438e-013	4.62856e-013	4.62856e-013	6.58329e-013	1.12126e-012	1.3168e-012	1.97542e-012	1.97542e-012	2.63418e-012	2.36692e-012	3.097e-012	3.29302e-012	3.48872e-012	3.95206e-012	
FineR176	-2.56004e-012	-2.16977e-012	-1.97446e-012	-1.70694e-012	-1.04897e-012	-8.53589e-013	-3.90852e-013	-1.95438e-013	4.62856e-013	4.62856e-013	1.12129e-012	1.12129e-012	1.58411e-012	1.77982e-012	1.97542e-012	2.63418e-012	2.63418e-012	3.29309e-012	3.29309e-012	3.48872e-012	3.95206e-012	
FineR177	-2.56004e-012	-2.36476e-012	-1.97446e-012	-1.70694e-012	-1.04897e-012	-8.53589e-013	-3.90852e-013	7.19565e-014	1.95475e-013	4.62856e-013	9.25759e-013	1.12129e-012	1.77988e-012	1.77988e-012	2.2427e-012	2.63418e-012	2.63418e-012	3.097e-012	3.29309e-012	3.75592e-012	4.02298e-012	
FineR178	-2.56004e-012	-2.36478e-012	-1.90225e-012	-1.24432e-012	-1.24432e-012	-5.86243e-013	-3.90852e-013	-1.23481e-013	2.67406e-013	4.62856e-013	1.1931e-012	1.12129e-012	1.77988e-012	1.97546e-012	2.2427e-012	2.63424e-012	2.63418e-012	3.29309e-012	3.29309e-012	3.56021e-012	3.95214e-012	
FineR179	-2.2925e-012	-1.90225e-012	-1.90225e-012	-1.43945e-012	-1.04896e-012	-8.53711e-013	-3.90852e-013	-1.95426e-013	2.67406e-013	7.30225e-013	9.25809e-013	1.38864e-012	1.31683e-012	1.77988e-012	2.4386e-012	2.4386e-012	2.90144e-012	3.36463e-012	3.56032e-012	3.75592e-012	3.95214e-012	
FineR180	-2.2925e-012	-2.09755e-012	-1.90225e-012	-1.24432e-012	-1.04896e-012	-5.86243e-013	-1.23421e-013	-3.90852e-013	2.67406e-013	7.30225e-013	9.25809e-013	1.38864e-012	1.85161e-012	2.04719e-012	2.17134e-012	2.4386e-012	2.90144e-012	3.09747e-012	3.56032e-012	3.56032e-012	3.95214e-012	
FineR181	-2.2925e-012	-1.90225e-012	-1.63474e-012	-9.76828e-013	-1.04896e-012	-5.86243e-013	-3.90829e-013	7.198e-014	5.34812e-013	4.62881e-013	1.19319e-012	1.31703e-012	1.58436e-012	2.04719e-012	2.24305e-012	2.7059e-012	2.7059e-012	3.36474e-012	3.75658e-012	3.75649e-012	4.21934e-012	
FineR182	-2.7553e-012	-2.09755e-012	-1.43965e-012	-1.2443e-012	-9.76828e-013	-3.18775e-013	-3.18775e-013	7.198e-014	7.30348e-013	7.30348e-013	1.19319e-012	1.58442e-012	1.85171e-012	2.04719e-012	2.24305e-012	2.7059e-012	2.90188e-012	3.36474e-012	3.63186e-012	3.75649e-012	4.21934e-012	
FineR183	-2.48772e-012	-1.83e-012	-1.70719e-012	-1.43965e-012	-9.76828e-013	-3.18775e-013	-3.18775e-013	3.39423e-013	5.34812e-013	7.30348e-013	1.19319e-012	1.38886e-012	1.85171e-012	2.31451e-012	2.51038e-012	2.7059e-012	2.90188e-012	3.36474e-012	3.82755e-012	4.02373e-012	4.29081e-012	
FineR184	-2.29282e-012	-1.83e-012	-1.43962e-012	-1.17212e-012	-5.14105e-013	-5.86208e-013	-3.18775e-013	3.39423e-013	5.3491e-013	9.97765e-013	1.19319e-012	1.58442e-012	1.85171e-012	2.04752e-012	2.51038e-012	3.16919e-012	3.16919e-012	3.36474e-012	3.56086e-012	4.02373e-012	4.02373e-012	
FineR185	-2.29282e-012	-1.83e-012	-1.63496e-012	-1.17212e-012	-5.14105e-013	-5.86208e-013	1.44058e-013	7.20288e-014	5.3491e-013	9.97765e-013	1.38894e-012	1.65625e-012	2.04752e-012	2.04752e-012	2.51038e-012	2.706e-012	3.16919e-012	3.63201e-012	3.56086e-012	4.02373e-012	4.02373e-012	
FineR186	-2.29282e-012	-1.82994e-012	-1.63496e-012	-1.17212e-012	-7.81563e-013	-5.14105e-013	1.44058e-013	1.44058e-013	3.39423e-013	9.97765e-013	1.19328e-012	1.65625e-012	2.11907e-012	2.31488e-012	2.51038e-012	2.70632e-012	3.16919e-012	3.36486e-012	3.82814e-012	4.02386e-012	4.48724e-012	
FineR187	-2.29279e-012	-1.82994e-012	-1.36739e-012	-1.17205e-012	-7.09411e-013	-5.14105e-013	1.44058e-013	1.44058e-013	8.02365e-013	1.26518e-012	9.97765e-013	1.65625e-012	2.11907e-012	2.31488e-012	2.77771e-012	2.97366e-012	3.16919e-012	3.36526e-012	3.82814e-012	4.02386e-012	4.29097e-012	
FineR188	-2.02523e-012	-2.02523e-012	-1.36739e-012	-9.76895e-013	-5.14021e-013	-5.14105e-013	-1.23362e-013	3.39509e-013	8.02365e-013	9.97765e-013	9.97765e-013	1.92364e-012	2.04761e-012	2.31488e-012	2.77771e-012	2.97366e-012	3.16919e-012	3.16919e-012	3.82814e-012	4.29097e-012	4.29097e-012	
FineR189	-2.29279e-012	-2.02523e-012	-1.63492e-012	-9.76895e-013	-5.14021e-013	-2.466e-013	-5.12844e-014	1.44058e-013	8.02365e-013	8.02365e-013	1.46082e-012	1.92364e-012	1.85181e-012	2.31488e-012	2.31488e-012	2.97366e-012	3.43649e-012	3.43649e-012	3.82814e-012	3.82814e-012	4.48724e-012	
FineR190	-2.02516e-012	-1.56264e-012	-1.36731e-012	-1.17227e-012	-7.09411e-013	-5.12844e-014	1.44155e-013	1.44058e-013	8.02365e-013	1.26518e-012	1.46082e-012	1.92364e-012	2.11941e-012	2.58225e-012	2.31488e-012	2.97366e-012	3.43649e-012	3.63258e-012	4.09542e-012	4.09542e-012	4.7545e-012	
MinCout:	0	FineR:	174	FineC:	128

