	CoarseC0	CoarseC10	CoarseC20	CoarseC30	CoarseC40	CoarseC50	CoarseC60	CoarseC70	CoarseC80	CoarseC90	CoarseC100	CoarseC110	CoarseC120	CoarseC130	CoarseC140	CoarseC150	CoarseC160	CoarseC170	CoarseC180	CoarseC190	CoarseC200	CoarseC210	CoarseC220	CoarseC230	CoarseC240	CoarseC250	
CoarseR0	2070.981738407077	3100.347516664686	3022.3047923388153	2916.3325539814095	2518.0110912434884	2971.4817345858123	2648.694670055538	2895.7557180540452	2574.6378537720407	2648.6673391667814	2674.629076374921	2870.5524292965456	3114.9042804142728	2611.5009596157483	2599.137065385303	2672.4405196239854	2425.867238166738	2524.7829298492434	2304.3363515082	2493.696092841014	2430.328306561748	2462.6049657380563	2207.879226023214	2500.163350432023	2411.1889354430004	2373.445515609105	
CoarseR10	9017.939343105316	10777.580568956944	6908.41041841219	8097.658242821117	7988.755706164913	7016.566802119843	5609.598852294063	6170.80590256948	5397.853046017073	4622.4918960069635	5582.878444492858	4917.158858723257	5951.364161141392	5080.161111376435	4781.456112683534	4888.950687190639	5603.654975141074	5625.546396698212	6000.679500734497	4491.404546574437	4133.252128202856	4913.1916735937075	4256.520105710778	4140.19888551139	4114.6184466725235	4530.945169454235	
CoarseR20	51260.079341220575	480867.2046955246	35399.37461172734	55182.92516761694	35243.929654104984	81624.55435459227	128568.45251441306	54284.83436081273	89160.90469151518	19924.370436263624	318657.4437332232	258215.04794932864	23082.191473989817	22843.431988294757	25717.62579774845	30315.164812830724	36687.26941789035	25076.03561064084	9575.344404454436	16846.17289284894	16878.822053266016	32102.549587893922	18592.34737549423	14859.173703425633	13013.695549722619	21035.607043835364	
CoarseR30	17401.120596225854	13828.711229440998	14212.686549953682	11435.472262263562	23818.69217624342	14927.228033250156	19237.630439488	15415.92515385636	25594.68855866692	16155.718142700942	25225.873426120645	17011.855042526404	16798.334817290335	14819.929923587773	23040.082843215783	16646.67195742267	22746.457746803895	15660.083085945344	18447.00514330342	28573.248507858076	22298.841485046956	38567.79495844168	19399.64537755149	22297.55005461879	47373.84849397702	27418.59529962946	
CoarseR40	11599.957532208044	8205.400874593837	10574.990026005933	10617.899504377887	12232.536412412894	8104.040408881477	7569.444290587637	12434.085409951696	11514.51996138363	10089.890504316136	12405.393351212033	11381.966050062108	10065.187024869241	14394.390266720226	18773.33171626354	10241.135983577253	11651.427779569454	9659.30288370761	11708.078346805005	11008.882260902064	15026.364613390815	9001.208682591661	18114.83240017272	42566.33900367939	16821.27232126726	13304.24849658463	
CoarseR50	9148.726225130255	6997.158726717013	7931.610856139158	9757.91368776096	7467.516208247255	8009.017073994128	6865.171261085537	7659.146257226184	7349.288514502867	13790.939755908083	9365.677458634182	6789.069169695368	7445.059507274219	9674.42769473606	11221.42580869429	12079.882307802174	7482.137614928145	8974.12323061153	9638.49461983539	7516.688750771547	10586.329401561097	8481.634966025658	8115.578189257409	11400.452050464155	10658.53660017167	14082.945706892675	
CoarseR60	5746.629360212681	4542.994083781538	6916.8771341211	8784.24697706311	5953.950846300978	5599.926024973378	7442.635583973897	5265.757866071572	5225.057560207704	6034.331602332882	6393.803601851315	6758.992904472195	5845.344869198872	7446.646591662144	7914.019234236217	7351.4419738835395	6214.957216718889	9529.8666295476	10553.050565513642	9163.36156397271	8027.4677226021595	6307.108766173659	6810.162688166471	8623.33058145022	7162.278145062938	6960.44195275956	
CoarseR70	5064.409473910899	5629.488389985793	5333.787093263372	5935.455894791387	4967.284187781655	5500.657912102457	5609.287594689632	5161.376738946958	4966.721440065355	6410.375426897808	5762.207576000247	5847.628728689603	5372.773147443473	4717.097347189252	4932.113360211422	6738.202439693264	5350.405966411425	5472.217973737009	5061.402118451106	5247.9470296526715	5982.6655168373545	5168.1642688917345	5745.984406699022	10079.893468231423	8034.482863886558	6399.930775539521	
CoarseR80	5735.553478239157	4940.493078315316	4369.713563748935	4578.051583804763	4201.7322973071	4295.4837815066185	4684.080170410969	5083.259685992643	4767.197800417819	4218.2681335122	5787.765865926706	4642.974515843959	5358.992582212074	5753.178067078984	5567.215070021316	5681.851907907036	5323.225062733047	5368.25115911524	5213.9015845476215	4621.520196285542	5192.409015689795	4969.997282999328	6186.271576950009	5570.781129462529	5280.688904615725	5642.985985066449	
CoarseR90	4649.420727174717	4355.589718962224	4554.1998630997205	4653.777217555652	4164.587710556761	3900.4873269419627	5197.275540537055	3880.5560404961607	4524.0110454915475	4687.804246013283	4295.959245864677	4929.3079916869665	4750.209368090715	4637.894725592723	4519.873680793918	4674.793789660026	4519.279071850237	4522.11815529623	4815.562556270564	5334.031914284057	4740.505072540729	4423.4625713118385	4633.301453727702	4949.407113825976	5455.794582945521	6036.845463096243	
CoarseR100	4062.0328346877277	4084.2394069861275	3955.996581805155	4346.581614338743	4059.5947528086135	3997.1430290311896	4016.793826455179	4085.9356075530736	4163.250097951952	4318.618377749796	3745.3438723461654	4080.7629646753926	4312.279933482024	4210.187210540398	4080.6106398227084	4652.045424076368	4558.938133094789	5201.0792502331415	4051.519432504734	4275.303823347384	4297.266206398869	4591.941472403041	4979.669617866403	4744.528101926145	4267.111571945128	4536.3250150360245	
CoarseR110	3578.858301562819	3648.3998742171025	3927.9403741355104	4184.827706686466	4776.96200570254	3590.5915553924197	3996.0672307359905	3924.3284232806627	4241.235344078156	4801.276776597722	4530.707508760122	3840.632158911181	4392.828910730921	4005.4509530483124	3786.279038340559	3858.4614171962644	3888.1040995353383	4788.584538174701	4236.431264901441	4396.998740413037	4374.810937048634	4297.89673832938	3777.1001920745384	4573.858438969825	4123.851362948482	5468.218112634305	
CoarseR120	4177.045329632624	3488.1676404455693	3654.451902001009	3484.934642291424	4174.370007585302	3593.4347148542743	3660.405431334621	3337.9433922696403	4198.943227019952	3926.013364149123	4000.3510669047873	3692.2627854448	3883.6916614743664	4245.5021652117675	4573.952090952392	3718.693288435674	4750.481131395707	4296.677489166448	4488.1041844577285	3839.0442061408685	4028.721192072652	4016.1520200560717	5381.094389890834	3973.9866454089815	5342.426939263173	4423.825708845675	
CoarseR130	3554.543234171744	3319.6157340336613	3092.3043355071836	3585.346079317112	3743.0027738634294	3569.632863125122	3613.328039134593	4287.2797550652285	3593.2086535511667	3546.454501736654	3934.474144912554	4989.674629710465	3800.794796926223	3692.1650222449903	3476.4684278374452	4707.695750866533	4028.677013271443	3656.1356823436467	3830.718724682232	4309.189492023337	3973.1990717954554	3699.711952922743	4413.719315245478	4162.803197135298	4337.08869276175	4627.255010912617	
CoarseR140	3192.3318987707394	3299.4630741721344	3789.957995164042	3472.4729029754985	3327.2323394006517	3600.8599198018055	3194.193299308807	3779.0832131811603	3626.5184239350824	4173.653221546082	3912.668056754449	3468.5337980823215	3520.6356227254614	3928.599422996124	3984.591969246529	3611.820033143234	3800.046204661676	3976.009191894166	3918.7872463575413	3983.5337360798203	4216.9407265692425	4319.919683888372	3711.241623673164	4351.196516444204	4183.124418585219	3620.626017973763	
CoarseR150	3323.8221624667094	3629.651431439121	3327.3703690597386	3397.236737313142	3793.061775924945	3430.221248345691	3581.071561642813	3776.742290868782	3613.9697800048143	3741.70534766815	3322.5865475332034	3596.5975249363837	4272.363473207418	3236.886213589578	3364.593023128438	3923.448759257798	3738.470192739633	3892.522955966573	3850.1170244532304	4077.875853878097	3665.4328456064873	3939.8534420931232	3897.508710051818	3705.183256279617	3968.616689899292	3712.8784737983046	
CoarseR160	3530.2971530064074	4411.968142510026	3932.658196014467	4462.500517549003	4434.3004880120925	5087.174519722286	4150.381430444848	4216.812866022455	4977.844075169551	5417.048425699841	4433.114704871116	5326.937261441409	5363.522858090878	5759.752760883863	5412.067803139747	5789.336562136208	6849.8310013908595	7568.121794588753	5311.918326220896	6061.651496630564	5629.525186738868	6078.521879769174	6380.51929768832	7391.186427839509	8393.00976238718	8067.0051912315785	
CoarseR170	4446.853666295614	4653.084912978002	4275.275647614256	5069.651545714561	4598.081707366886	5613.213627885407	4685.162387940212	4484.4609916577665	5437.686835740177	5299.769178926357	5573.3801928290895	5969.5640213533925	5884.821278792412	7204.349992509804	6001.075458065947	7494.346623575358	5102.054936691345	6181.366339051395	5091.852059642476	6494.688175495848	6591.284728323415	5120.776084657306	5740.324360837862	6660.7575468983005	8186.06562341408	8804.107988726917	
CoarseR180	4376.508503477524	4448.198208995486	4828.493939376657	4451.288586900525	4293.149086544037	4801.985069068204	6033.946327446993	5646.388414557978	5434.023222701394	6341.782921253299	6947.06327737447	6173.435883007255	5681.229727394112	5699.397267736326	7673.808759249158	5973.080390241891	6910.314760086357	5463.100380876345	5505.151726010602	8315.538664996555	6566.0057121727505	5692.8060622953635	6941.077375097891	5559.593542910299	6828.420808885221	8139.331455814504	
CoarseR190	4035.2345879127	5090.594460704236	4207.786337649694	4666.003563458977	5126.844203712839	5146.901191131029	5098.274357388828	5104.145744354229	5160.581147171624	5918.992207258007	7412.151067323481	6019.112207151665	6336.6096316308585	5945.275225496388	5920.998947148224	6548.089168012471	4843.847387963348	6592.039328760499	7927.410249130059	5265.290241296467	6598.014411225553	7380.562018558206	8081.220512883323	9859.27975371443	6625.043197668906	8990.035877839584	
CoarseR200	4304.8186832878855	4041.0373101328314	7185.867673594602	5283.401752097059	5056.703355775047	4691.282425600318	5072.188379631193	4652.028027440266	5490.697328126943	5387.046878114199	6040.239617638439	7421.537017936146	7081.67660385242	9831.898139543015	6705.590123491374	7813.718152955796	7362.2550803343365	10516.943570823141	9784.064525688382	11002.429472768148	5924.490305154771	9166.872773071495	8416.817828324238	7601.2548183526005	11709.61049884524	8289.070594883075	
CoarseR210	4962.881964234446	4653.017235126095	4608.45625925669	5689.787894300149	6153.995322900846	5645.736396182146	5991.380342216129	5346.176547682862	7245.695961545018	6286.520274415206	6635.046718244221	7812.482349654436	8775.532330608707	7848.861262534949	6669.23042161869	6817.867680654045	14104.506835495476	9364.373722866188	8183.421777519213	7116.056331951703	7391.445293343986	8094.6236070042105	8908.824271187836	10651.649087364853	9871.335389960204	11648.523927245542	
CoarseR220	4677.798440110192	5358.826188699489	4373.834336928365	5359.710436572667	4812.957619963573	5426.660072861161	4997.733509341783	7290.722893640016	5671.467377118654	6039.827178587153	6586.389288667297	6496.966080533707	6115.397658071869	7900.036668102266	7435.969383611461	8031.612532455522	7367.851563333436	9097.744710361807	7330.871620656395	8361.969943212804	11380.176048646901	7770.714409996366	8126.2411688644615	14232.52876225231	8272.620676379298	11251.319478712536	
CoarseR230	5480.576657966056	5199.773461066328	5593.217096116852	4603.996348710642	5920.654793527534	6149.359800416718	5862.525424434751	6508.615351417298	8247.25310396646	6746.483315009005	6402.458093939402	6960.008824653871	8508.534771007442	7113.9274818479425	9271.783360447858	8963.129465737191	8266.77239680258	9292.204281815635	8641.472739537512	8225.17331682409	8072.9570068135	9135.404458223453	9880.906475576992	8418.361121876897	10339.895503760696	11974.223358645531	
CoarseR240	5110.09452147836	6284.429627624894	4907.870493815784	6455.599366098539	5069.789122084139	6280.752468104621	6443.679164856447	5881.10474448534	6281.429702470721	6976.941827687452	6802.446418630926	6030.720998662789	6492.708618684472	8948.233740432139	8140.402873230053	10075.730613015963	8046.396823783222	11604.611262791273	8368.843685265843	9915.349617498614	12661.496428981733	10766.908839755875	7709.548665785792	10821.189437811716	10996.086917384006	8049.424736605173	
CoarseR250	4566.166187489758	4261.18910161728	5379.703364038165	4614.040465926636	6673.246025066901	5055.044478306959	6219.545641561676	6411.290118290896	6420.033662922816	8076.518973156031	6929.942818187416	7212.521442880963	8487.258439458825	8835.776620600973	7152.959266852753	10514.694088004455	11387.722950818941	10047.918854749858	10094.99633366161	8732.50428353852	17026.238071182863	9317.383661578897	13773.975659943982	10425.674456167615	12826.454658926516	15599.371617031535	
MaxRout:	480867.2046955246	CoarseR:	20	CoarseC:	10

	CoarseC100	CoarseC101	CoarseC102	CoarseC103	CoarseC104	CoarseC105	CoarseC106	CoarseC107	CoarseC108	CoarseC109	CoarseC110	CoarseC111	CoarseC112	CoarseC113	CoarseC114	CoarseC115	CoarseC116	CoarseC117	CoarseC118	CoarseC119	CoarseC120	
CoarseR10	2674.536340261947	6938.483803530715	7801.820193229676	6890.429234734991	5589.166187402951	6480.715842248236	6580.43556156461	6699.41050980237	6521.977063266097	6094.281166597628	7004.747877025747	5827.439643665763	6693.291758345766	6316.08241269656	7777.346529529724	6113.807244521981	6108.167474120669	5627.54121921323	6382.890514014757	6214.1177245344315	5246.629176798562	
CoarseR11	7007.444392029364	7703.066348879217	6426.76535902363	6854.233783646016	6516.694113981599	6602.384232911358	7059.552163561078	8314.838674586315	6858.473996894593	6591.163612627619	7296.502744289632	7430.771104236634	6529.362669317868	5944.022642165518	7553.862285493001	8041.655371932597	8403.752208433556	6635.512500657721	9603.564584471043	6735.334590644168	5477.575727599048	
CoarseR12	8018.245127795295	9677.829020570354	8419.430222997753	8826.755819727703	12044.27570811195	11285.942247209518	6906.5149360580535	9191.53910359016	8774.968694633159	9748.708062734388	6826.683978532013	7941.8568710210375	8394.930960740478	7186.635952972672	7953.674564357073	7619.110803014772	6612.603342753783	7935.341032908064	8691.661916584193	10552.448127170263	7373.606681618802	
CoarseR13	13364.13364423886	10663.635732804029	9542.023494112047	11151.80697219434	9421.902669738884	9708.022824548321	10364.86953158011	7004.283724806037	9203.26836646528	10628.407186827297	9894.96464197929	7258.698332737828	6837.501356769065	10742.51877025609	9390.413220563025	8129.633872577148	9097.540060616415	7572.37016054174	11028.242650832772	8524.016181384766	7799.97529812167	
CoarseR14	12083.685696611585	11560.031724139611	8459.509517259701	11352.153440421365	11075.841605722406	14537.162005808554	15962.836352673081	12944.676641369946	9128.231297574042	9471.946598019385	11613.37918058434	12822.60070075349	14937.584646915462	11520.597231494323	10242.951904261781	12932.152529736386	12918.241035470508	14198.20197796559	12032.420871227938	9614.552734836583	10102.732157765973	
CoarseR15	13992.029803498539	17998.144340970804	18085.6916108446	17417.15179728464	13625.064205679913	14454.867807091354	20589.415495454068	18567.320377899305	12797.115580983347	11486.64293030897	12437.951236519097	9013.99534222613	18949.780226905663	22471.729264633363	16632.512485018924	12591.158406957496	12952.448684622006	22141.982970304558	14149.203974646893	14056.348123832086	12233.24485467547	
CoarseR16	18348.213645503718	24727.709199035686	14325.839655647289	15418.539852214566	32361.3991640683	16360.456164794554	11555.539856694257	24718.53731095622	35736.524455957966	21643.857002528846	17186.186848960417	24613.857718774136	13115.109508398116	20343.9779968582	20993.36197028711	26585.579454919734	11444.64784262371	13556.394506157703	50110.029618706474	13983.882727047423	21358.70084548849	
CoarseR17	17373.36833602529	24017.796298411464	23070.70739354065	26552.036891725653	27817.684285840383	32630.713192128915	22274.21792876303	28085.142317526006	18570.640765025993	28370.008401760067	28675.5683869426	17964.356081506867	19178.340535566855	33453.88068867079	20273.223451176076	29711.64710345338	24467.26676586753	32701.70320896974	24740.61585460929	25413.981822963873	39046.229614931886	
CoarseR18	25203.96479122401	57949.21816997095	284388.3834287009	85252.08222419026	272536.3215827352	92189.50977087677	925012.6538768716	24512.752341034455	58578.85266825743	142247.23577163336	41848.0796287513	29096.259717889254	32162.846627442217	25148.864933918314	20016.988395108056	58716.87674054976	49725.19464663066	56351.65995357634	23134.1596781854	45755.51907650505	31835.798352910075	
CoarseR19	2980211.194171188	146387.12814256543	101991.26508440213	36224.27365165777	340300.6426062444	93509.75958680671	2419276.898805499	401998.6186241616	106062.70529825981	33898.012405142654	181208.05852870265	107345.62284541596	213579.48567904963	537697.8131531755	67820.66419439072	89617.5969656085	47872.82303923242	327248.212580211	405467.34341096046	111845.34084993247	88113.69170287883	
CoarseR20	50419.06600539227	66640.78974280624	42773.21719640451	126579.04951537197	110084.7836173739	251377.8647506854	58260.48028405344	57367.38459370648	156431.45213419865	194850.08489026604	205470.09368054604	91071.99119064669	69546.39362934601	184163.28348675373	314447.3816385197	152844.39749279732	228673.67202317005	270424.8912171273	86591.59917309374	349543.9649672293	44414.890614246055	
CoarseR21	271308.7337813812	29913.894839235756	33224.18762793129	31329.524437219075	88013.88153600575	28159.40166911717	39813.78624583391	33570.338606864905	28924.968487334245	21278.33194477998	42237.86304459139	45655.6177146029	277726.42739780096	45937.186401186336	49345.105070668535	166607.2507494836	32166.986274504976	48361.36302285205	17827.9077838089	47618.76559277441	59719.612844499454	
CoarseR22	79741.2312970664	21298.335850184885	29891.19472664511	48980.460493687286	17684.818590914867	21187.750828598375	25339.1701610306	31456.114136706266	94695.069777387	21873.457077102703	23667.136584222524	34691.31927674337	20271.552868059338	23220.09292449667	22690.12526108093	46883.713599581184	24558.91277552302	33884.46977588883	39408.28504758269	58642.76730580417	122968.0657756708	
CoarseR23	18728.945393973398	23066.39105857066	17302.024040111202	17995.29960756034	77587.35443950849	23220.66441495068	18449.888025924647	19961.3864775021	23568.02659748164	17270.81390093009	15397.579928519646	29878.644531850085	24604.489710080612	23336.342010270622	53768.714734806585	25276.314434761167	20273.254553391493	25933.34851276107	24043.62276120478	17116.665348808376	33147.45091424909	
CoarseR24	18267.4208813548	17129.192921245383	20227.958494025494	19549.575496502617	14961.77242475817	15874.529545309388	23118.30045597806	18421.89098192392	15263.013112694614	15708.290324771866	24870.334583085565	20780.84477502938	17707.132545801272	20539.4393946672	19872.859709903103	19604.50645828237	16339.270808378247	59959.5386218752	21313.09088494336	16917.26936507055	20626.79451324047	
CoarseR25	13600.795829584004	17799.070463969016	19978.077775149985	13515.646361994523	12031.636983945622	12332.016720190046	11648.985680901123	14002.2606995575	18909.778584597905	16415.948327610633	22479.457500452987	237813.7927450369	18767.494091653316	12836.629758262377	16093.364199057422	13617.972056173017	21031.87555973603	12917.564902650105	16555.52061028044	23649.720316978983	16978.606382492442	
CoarseR26	16636.963349314494	18130.971214065194	15270.559569537825	13939.611331410797	15334.203669493323	15416.676426091863	20540.594793617147	13443.580454395897	16921.578323568174	16084.77368785174	14499.525762126732	11260.042228138986	19041.269086386645	12760.401213329664	14282.028835805657	12240.460038675345	11223.352802985468	23643.441507539665	13860.487133170589	20639.181306781174	21789.265505596442	
CoarseR27	12732.577582099322	13026.555238525209	14115.992349707365	14884.351339199307	22083.492387399605	14016.638298732409	11467.889900497437	13603.42481485759	13139.926409026011	12181.432005798633	12944.561420856035	15572.877398521226	17121.04698302536	13714.043972352596	15296.058532287612	14821.776597924989	12440.153695983405	12615.63770620903	16264.42048028907	18248.649208633095	12554.101081666728	
CoarseR28	11061.512371485134	14775.00219587788	10589.82375335437	10260.478245229808	13835.882931208615	12795.476756706696	10677.22384802719	10667.969754082436	9050.897238967056	15560.119216723146	11248.845237283356	12724.81102676336	17445.906856432703	11237.268150712034	11708.941103236692	13736.97708704466	15627.056236734912	11529.586965613333	16767.422626555814	14823.56655274189	11474.454694912332	
CoarseR29	13238.256753377369	14089.17826434095	19313.94563242984	12391.718455992755	12069.738446307378	13666.836028834017	9795.389487441857	9447.16528868828	17369.19442867361	9728.460849254243	16332.633542435626	21285.28116469064	24617.029292379135	15298.455871749873	12135.77462107402	20818.737141248464	16486.364346019433	14860.449984231744	9426.320866401576	32372.543973895506	15584.095629356887	
CoarseR30	30558.79950108088	19974.187125821023	12510.728245073302	16032.22958054473	10266.90682480282	12708.72310282866	17414.93653323116	11466.588531132755	11805.35504581064	13636.456650937223	14454.338082488579	9910.001713174643	12676.446439494413	12308.083206876525	9904.612957060204	13447.771151786688	11404.279991248119	10145.353439301804	9500.25341716993	9606.956157463463	11812.179753522365	
MaxRout:	2980211.194171188	CoarseR:	19	CoarseC:	100

	FineC0	FineC10	FineC20	FineC30	FineC40	FineC50	FineC60	FineC70	FineC80	FineC90	FineC100	FineC110	FineC120	FineC130	FineC140	FineC150	FineC160	FineC170	FineC180	FineC190	FineC200	FineC210	FineC220	FineC230	FineC240	FineC250	
FineR0	5498.537075697827	5893.306268703396	4766.794733606179	4833.765059171481	5147.703586930595	4785.212225147639	4457.649435860625	5522.627286328459	5017.161122842249	4853.385065932799	5171.138489213696	3997.616044517474	4706.978540872108	4430.08061594966	4184.345082680592	5384.664313555481	4969.746783967097	3864.106866024217	4366.609394121579	4395.410842238537	4839.098744731992	4788.954018326472	4549.02556303218	4583.963550953229	5060.3691759308695	5338.629578651985	
FineR10	10151.683498200238	10774.719643820257	11122.619709025317	9701.957917596803	8531.852379393547	11080.46020575034	7493.297368839208	11013.510974050265	7655.653516848571	8025.701316409941	6396.1874667859365	7356.178045695401	8211.103319068072	9184.321095061629	8894.927279072748	8776.86315720563	9946.284585376434	8750.40151557315	7784.022058595935	6953.519662332069	9560.83354258769	8808.307898500865	7917.214747265421	7140.705547519748	8562.205867017949	8715.845665321018	
FineR20	20011.325701687096	12245.250099061357	15147.80580143308	15168.718448451455	17736.80894728772	16100.523357756301	15595.002510214073	13730.862604333206	12788.66615550318	21645.501375149113	12299.168119829277	19517.358195716595	9869.788217715955	13800.063748315515	9961.377132179005	18829.477850174975	11445.044610547031	12698.445424457768	18907.0251869362	11739.493684270421	12282.777520541029	12351.064089395179	14574.853360337247	9964.109040176421	10679.785212231354	13317.042467270408	
FineR30	7454779.085234831	183773.58895686036	30246.398148288747	26113.300322096395	20213.469666439127	25155.466400863857	31565.87112177277	23775.892214643485	28933.710063760198	17129.170884605926	21728.549727484045	49899.4053173486	29380.809703311286	23725.65227094656	20716.299828593896	15933.18636347649	15973.757261735771	15924.294356797296	22553.575875072253	14614.245371254721	18118.690713665597	32945.472801494354	14933.790217195683	22684.21508434939	20531.876062755062	19504.953750172055	
FineR40	87854.37906575252	66454.62613034138	123434.36056749488	236377.46083097783	35085.05063053583	33411.14120067548	21070.91110303259	59392.09872971741	117486.08437690132	25910.286131334626	736657.585861954	37526.22991486645	32506.995987183873	28810.905532878525	17664.839442548917	24142.07891305106	78274.73825395873	21001.707607217882	35150.259986669196	18031.67897091987	48155.315493918126	40094.46482683794	26328.328968148868	21931.77098075422	25156.65983063624	20173.85092603938	
FineR50	76598.74650253076	82583.95184678854	131699.65183062624	57502.14262113138	60436.77670229332	125334.58909604917	35788.13436815959	48143.74290946241	345751.8923103389	33712.1502490408	54146.48618936048	22061.626367593082	26714.309040423228	85402.83559746854	69399.8007656199	37133.31997080121	16464.56072381844	31174.016263967707	22683.942301207993	31631.79520509061	20059.18967893936	24279.91067192328	20112.186504664718	41262.5670438904	56648.76103856428	29994.076098337242	
FineR60	270216.5005755762	127668.56730208485	47867.344859301505	97187.36301674024	46662.66401152842	860096.5575871075	96280.16012853108	43452.38488086357	48209.304997790154	339975.9538907411	39487.012509493696	39881.32104226685	23592.992035429914	65463.223321957346	236349.55996768846	779411.1458755926	582904.0506873659	64421.56835799225	36570.650897785075	813369.3181818182	57858.469417622175	49246.506962231026	74187.23107306437	33613.64733101967	22798.40760359554	134014.0867687904	
FineR70	388044.80875705497	62616.014714308156	52406.536370670736	136935.42544427907	73740.97801225787	91901.99929686512	190235.270455563	100131.35148780503	108818.10563022438	194705.79425033368	106695.69636998915	227646.0860810053	81104.62921151564	88180.80528520736	205371.03675807267	206765.3933007151	34042.78519954486	87615.35965105864	39612.81674983761	109152.98850668194	81805.30836033435	111405.56479229181	911373.3824674857	42281.17937807495	145038.70706455476	240985.8165271791	
FineR80	54379.49743803951	177986.48109458003	37414.877846981224	65399.496597739104	155854.90467051408	43890.18849540388	137183.86487022424	221086.09326491033	72022.95489671173	297896.54430453025	118545.99239150257	30840.05053061327	211940.18444559176	161975.57318807527	76861.80579144022	553453.3482925461	63894.687303534534	122400.4955179789	56775.38308772537	106474.90489379317	178415.53245108327	666592.092679534	2675107.882204296	204751.10401941725	51917.4444773132	58659.18536313791	
FineR90	82495.38279043877	39234.85734085789	36602.78184230883	145250.27528384354	484898.08741406625	63426.39985103999	662545.1774165017	55766.318913156196	69005.30025476131	44774.087819322005	224662.03533684253	123437.93154908634	44899.075761522676	534506.1511698364	86483.58507594428	172458.0096007911	84917.32188272093	154857.2993190953	128663.00061293643	40192.49840574007	101427.8455929986	49093.3557443688	113809.62060701079	81280.65236306087	112903.85704546433	221416.78709507137	
FineR100	1070231.1496559633	438565.15544783877	327610.7749601253	22386.26262355201	51882.17213152675	135470.16621679216	50215.092793923446	119576.04081027534	72835.9260406173	86234.240069755	352572.07130507677	66814.75703058304	64991.0534705996	32125.22875729871	89051.470910802	191330.64350695047	211255.4289312457	72166.05700189373	43625.61044699969	212288.35272310904	469644.58417274157	113482.32860399164	2345251.9693832844	72284.313688048	112516.15457005728	771196.6554309458	
FineR110	39254.247259036725	44149.3145665708	41398.497939834095	37847.540381673585	52930.21682822144	49166.73361195911	60237.710745964454	25365.02248082057	206062.75790505463	92291.28840957364	98536.76447482688	44954.2448097345	446485.7530015968	62330.47404920691	253423.31559007405	76996.45809489943	104827.40411202119	158992.29404706004	170890.28375010611	804824.1449840651	236989.82282378754	183218.27640449745	99074.6773479731	256342.28059495412	90481.04854356269	330397.3006592709	
FineR120	29028.682816991968	28486.791969676862	20161.803453041244	26294.494422395022	58926.88886416902	39871.25337879639	30816.155923652408	55472.21317451025	55257.199961338236	38519.41058421035	96065.65831528086	82611.88100755686	55400.38414759643	118654.57189474472	33061.94918450798	150574.34357765675	102392.21909383484	171621.18797760326	122080.58655333162	38996.19226487239	51704.190719230435	8374363.636363637	67982.31697402975	122280.74799241599	137752.74000732816	59511.59399440524	
FineR130	27462.90108693261	24476.679401545654	25034.219924892594	39641.341669855654	48946.52897060549	51348.40729956346	37663.5018307601	52407.52081689976	48826.53403920354	56178.49884010202	40671.85704917031	132485.4821103581	114136.0376800899	92178.96808304873	46491.67061396613	183615.76883535786	36929.328018527114	53431.200173673016	90736.66282284485	47348.2662359869	525457.9131135825	37811.774179700806	164675.07269040294	311000.6142435619	41111.347270454935	65286.650981893064	
FineR140	24915.971591547474	28389.24299814008	45091.84485414868	37267.04849496545	31921.57557937067	28134.296113823522	109437.81971944285	647362.9115381552	32391.422659168813	85918.49231705462	33183.76694310943	87006.77991243634	53469.71688729641	52373.15755966006	245435.75524975557	34082.08708691456	53901.433554923315	242610.07597056232	58043.34534408593	38002.78032475366	56393.65222489177	169460.4889623321	129368.98710446004	61672.091180810734	97799.7282825861	73293.79768472543	
FineR150	18332.531347371376	28303.693452452047	29252.350046194228	55813.659798728535	30729.4630398449	64772.879101751634	38255.74324060892	33558.42209314727	46099.187093426604	37189.36531493942	2808505.1982935695	100229.41670423764	4734044.671346522	209300.2324535568	98846.9529191576	41978.944964219976	38632.926674518894	56356.8709726492	77371.57123808633	187148.52933127992	30332.187875710668	44024.998386540756	49946.990318224794	32800.84601393371	110758.24044745884	35906.36133257533	
FineR160	19091.469802927357	477211.96053631976	17886.959041143695	23385.548080928824	27359.348647611325	31728.236967035147	25974.69457003284	37887.489504617966	51520.42233782542	78648.47077176209	83670.39225444288	26371.02470192487	55054.00620087053	55508.83524540979	461273.44738756947	85562.15770727837	44420.93694842055	66775.77963707487	99884.98489671788	30739.051375461313	2378994.948232774	51391.84439616311	32486.82659388651	31494.801450823918	69229.84637353892	47566.8403744545	
FineR170	20447.419866464432	24952.635977811435	42541.25400913128	31845.08708269229	25167.37089280316	37924.18185084007	115472.67281443559	45673.925191414666	56076.62070560919	27525.02996261942	37840.27616164222	44002.321617402966	68376.76027456182	53835.79167312774	104685.64114782937	26370.292937568127	170778.40617400923	357757.9027324702	48819.23578174416	86429.56364396458	49097.24341405149	142445.0065431667	50002.06965527778	44313.83987607931	102230.11328570698	29551.365274690244	
FineR180	20959.559124296593	25137.369184595485	34525.52702783599	36977.49207082572	40212.53553508549	31812.045423869455	32126.84986167464	36063.65688068282	35884.7777328282	54960.254343334636	71310.27664253557	93079.86528324409	86489.6668465587	76826.63799791884	61810.85541585507	131320.13752594564	159849.49948016874	425322.0037071184	44698.17351886163	78886.13184961745	98522.94594789796	79944.71652637671	61929.77959788512	280960.0703677945	3975664.7191011235	38774.609389684774	
FineR190	33064.98466974077	36869.49718921584	101464.80329012508	21390.909789917045	457995.836484883	33485.55634297846	25745.47601342334	40232.260573317755	31822.977592789066	221452.6677052542	28758.677817673615	24352.982428625135	156409.04696394826	50598.57222769772	33054.03883055562	30566.457214414553	28052.70822571941	95991.81348785726	2426978.272191512	42965.76470752318	41844.76878087306	35463.29539143974	126123.87172635055	48405.59088020879	133467.15527596045	63051.81809786202	
FineR200	26780.928716384176	22108.070464970522	24303.46689801732	43065.57540960536	27817.453841250343	32081.695492105726	30102.15545321129	48451.96015282086	26602.96319113697	25595.93114198917	37593.37325252329	36881.4649139934	62644.28778781762	73715.17735497287	81095.97281964964	64881.50453477237	50380.07673795295	70423.22241985612	49034.190698265214	122252.12090705129	27835.940967332703	59577.20812156203	92604.8540487318	60394.62951145615	279842.655145326	76975.78187269038	
FineR210	24295.807040253327	34005.68181256457	39598.604713841945	31244.64292599668	26041.07184308264	48752.0168461993	39409.23506076983	78289.53204076149	23576.27088763185	76460.00220864941	54288.12011722622	214047.4559278135	28893.428123339498	290901.58324598183	84195.6129877157	193100.51324646358	47349.52786156718	64175.02972126077	173797.976011994	37980.984790555616	123448.45325945347	31091.863047818995	81792.53856012062	121429.6700696064	33825.17978258805	50237.656749829286	
FineR220	17688.638425672103	33535.8273062928	19248.019260528356	30499.75314815329	21962.28670967008	40824.281359842156	55448.6929323946	28116.19422148867	28728.571857005758	70572.73563688407	83658.5794506956	25524.762867224967	41861.12805682278	39832.58857679083	64576.21065012689	111608.34311907018	32199.93966548398	28750.041314027363	49172.8088563849	62998.34512697385	51218.35044368642	35259.053405007806	317325.2406599799	37341.005892914305	27378.203179271342	114869.71592187061	
FineR230	25730.703193146896	19545.839169582927	51051.66899664363	3587127.936403147	33277.09866271401	28139.824924462973	30029.73137373245	181535.67790490467	90380.51433529964	35757.44094619696	74302.40785672753	39430.86627913529	2088251.9378608568	324355.6796974666	160601.42494842983	60709.679313411216	86951.42098168677	84428.62684582069	34453.67711911915	60218.703829289836	2259905.129018703	147624.58363665064	59514.42577880909	72349.72264501374	59058.23639052843	65266.45483671455	
FineR240	24210.278046820502	24972.209448687943	205700.44922188352	35813.576442610574	32204.014832373825	88790.9111062144	31047.12316480207	55126.899845193104	50166.25824761317	70654.51232752511	98591.94096964998	94577.74584285897	40126.22270923447	112117.42728071363	32245.350633772414	44713.81912027726	36468.89427772097	765863.2392912688	253661.55273763282	197314.85716365333	71446.86734718889	44476.27523105543	74748.65623790835	117548.10499466598	145575.44041822228	63091.2340224482	
FineR250	21572.284756737925	58294.85188812711	43669.51547017672	103097.37737927846	41935.027435695025	206447.99056915622	22536.851392776138	47651.45730501948	73681.83032615099	22824.229675024468	263856.7555721498	36565.459110000025	32626.501692681028	28468.64259604462	45757.58036978816	688691.4464013893	42045.34843690962	35478.98073340662	22714.60300514765	101991.92656306182	123679.73086821544	26793.99336094926	56579.88134074542	44640.37143913833	199447.92978456768	104878.89885081373	
MaxRout:	8374363.636363637	FineR:	120	FineC:	210

	FineC10	FineC11	FineC12	FineC13	FineC14	FineC15	FineC16	FineC17	FineC18	FineC19	FineC20	FineC21	FineC22	FineC23	FineC24	FineC25	FineC26	FineC27	FineC28	FineC29	FineC30	
FineR90	83727.41400475358	903699.773640064	87222.4588196931	48549.6178808112	229456.4649542882	114860.95798849453	23601.88554170129	43200.64778558159	804050.6243712255	112867.68177122598	48442.77568493269	404345.8024504614	134432.83841957315	73987.49889820661	45273.52489085433	132052.37292120839	97598.60932731412	95944.30563155368	80468.74817389435	562888.1602365188	177934.96364802774	
FineR91	25050.6298563829	37118.97485523624	107846.8270625079	44371.06572444614	171761.8244008232	45895.83282221404	86105.285679543	180714.53955306314	295773.2647404837	36922.73100528087	34725.3805416059	144757.45168516482	64375.86126861584	19131.49446761431	59624.29679916131	43116.039575637384	987885.2613548418	129864.58359425695	63844.291588943044	23852.20054340762	47970.11392053917	
FineR92	28529.494136076264	34974.23602891896	153783.80959334498	83474.50973105873	34930.41587854422	115151.6955830977	360849.62234713684	50381.57723050776	56140.824167877196	69807.15702504366	130882.04433771924	87455.02119009892	109192.75364741677	52324.94321799347	18462.652672786895	71492.81201065762	79912.73312386045	189047.36854065355	425822.90519666014	48308.02672683421	160171.93668967433	
FineR93	56638.645303651465	21184.845679818976	3630644.220342659	53757.42735245632	26493.35716139339	362182.86109967437	1080352.9366932216	122227.15135440422	41692.93369016187	292132.7111612843	113494.39025249146	111296.38173070586	104119.97920801437	95770.32422894909	62958.01417162155	117427.090230462	166636.97189082004	129103.38803949411	57221.76993213384	276480.6825978062	92721.8763626039	
FineR94	201757.82545573826	144878.9745260695	69516.22914774291	371006.652834722	454527.14291310485	31619.504393208037	50214.83554807655	51139.32030488853	68717.8924259056	39290.36896986541	1496079.6252017953	109653.67766430238	145308.58753763261	85018.90892643241	132432.74371020045	82763.57926713362	64725.50857899214	79398.28322213558	480954.40946720063	56645.99411579164	1528922.508910452	
FineR95	30139.016686879568	39951.48520020185	207461.18161083528	18829.656972910394	38475.33426708934	28704.896417739517	215256.57494642155	76520.16974758734	62977.42789215473	65230.34452014937	24379.24471269444	48255.40452224391	185953.0268614802	73573.1317630985	29891.09160349972	1204519.6020670207	53247.96908205937	57422.44371482176	63926.775322822636	47081.20955247643	301352.36091314285	
FineR96	834729.4436660811	1703257.7959931777	97979.73664933626	562294.8652005369	850583.88808121	187953.27052092928	55453.683632607936	77323.81368925175	48948.22387106315	79855.969530379	49813.67554181806	153198.84906264127	91663.82338133387	117181.1162319116	521403.5927958089	65276.03467271954	26056.1239463985	73767.40839349301	36493.14596898957	51536.90344073194	554920.2366550107	
FineR97	41735.19531851799	23954.240287761517	45826.02190095934	130780.50877973558	282961.23208040063	64448.3232850247	73331.21278414752	404148.2614246214	39838.29545044756	28940.598492784968	18056.467189826177	31114.416967464782	69164.64878441386	86447.04481719134	119961.33503153165	77610.78525581027	16840.77572277878	43643.69728203768	25226.711472850977	4093249.379994489	114418.25656916287	
FineR98	71467.18237159967	82631.00529756484	38647.07419197792	71661.67879018217	154537.3085040873	137472.09471255387	145804.40823969623	68980.54857886273	85642.87344302832	51942.94865530411	42340.588093424114	28182.239435003354	465464.9737302977	50860.08955114382	135374.9486583377	172415.86504541166	61655.14381273446	26483.504762552293	99260.46932416655	48532.3661494588	180959.6107986963	
FineR99	29424.842242128594	164922.8424519896	68750.12096689364	71776.03942168303	34484.902760985904	22962.071470150368	666682.606908407	55013.27077598743	24758.544735181367	1412694.507195779	216564.01817267254	40530.305314738034	20516.364492583	24105.391370281068	333573.83156227926	152115.26605140464	326063.4185870965	124493.17931077455	31637.335711328993	172300.78803767948	28025.592730396886	
FineR100	59550.658064147276	66256.53182756704	24123.19670972494	72478.04213280555	76612.03903481044	22328.470413127292	104405.88792607636	13215.78164290078	15565.609705136885	86885.25590813221	83981.87419506813	102765.2324957299	52767.53523069477	36091.35617729717	885571.2953340262	116179.76540480954	22110.19914641477	36240.34767264437	141018.44375976172	49668.01090726463	131128.88232517804	
FineR101	14397.314247613767	114746.90726825797	16511.353268837018	75158.5483279552	605507.9660478417	70266.30128408429	43586.75183044138	51585.81710843337	53617.09914635152	2649379.4272645917	154724.71175094278	537916.3808904986	420668.3648520923	19756.41480338678	33232.91476657828	32952.160364324154	63583.79530885289	88250.75100082872	1114544.9716301437	38782.65836080545	31021.064886945063	
FineR102	32002.188270649123	17208.021336453116	15901.871659400666	93611.55640743012	155083.08176593538	36483.47640277171	69410.57893155048	120826.42275211768	197001.8531765515	41851.7067918508	24248.52093208183	948578.3471227112	103983.56601035957	94215.54937647397	7430961.538461538	42763.909389764805	55433.74423874627	31947.00878481915	46298.36492667918	92752.84258664191	114196.69556318677	
FineR103	417056.604067711	62846.30217367024	840100.7521350321	48457.62964318307	39101.10705918089	34071.467685236894	1023780.8781712484	293646.2243559387	130922.30127598526	65975.47315050027	117382.65922192257	42254.489506311154	17505.97566052307	29581.53584247615	258959.53698776988	2197348.047761587	18409.23572990259	39240.182442739846	32941.20719684806	37489.732553416754	148858.8922113057	
FineR104	392450.9794048039	147255.6206548401	282766.61085767206	31235.07861513245	112987.31600284684	26085.872978425996	34262.235355591016	33679.71032569917	233944.4514647313	78146.4500088624	61949.09615747026	31811.59683129519	46792.60734919657	20006.797740928003	154611.2588483259	25164.372600703762	26696.53835445496	85211.50256966657	140273.6915385626	27882.953555684875	128282.42100500004	
FineR105	18682.76038782154	17709.710821765828	23437.95014770771	54139.588732359836	43195.24172953344	949426.3005832083	34464.60195512649	524217.5952860153	528282.3423753519	53687.864439087716	103436.9332640577	148620.09699197928	195901.2128808498	177423.39864996116	25832.136073370195	20420.242965118756	58915.298087482224	20877.22117133425	788482.2357019064	17208.83077476056	285065.0553254882	
FineR106	121111.4936846871	70950.0929879791	68978.03633191904	28351.06521597124	119036.20181127655	128682.36313391876	163237.50119759064	119426.91053277838	13998.918836193216	30507.522791870724	25198.90581235001	40909.78941724342	19857.53945872963	19327.079846547567	43149.58155331377	32550.727473406983	43833.83892006674	36579.99967419736	107711.90886577356	13161.804224348345	82123.98690137667	
FineR107	16913.999514534105	12111.679887418535	21609.708917098116	16480.10674952166	45119.097991110546	174022.14889272084	43612.48851199581	52779.84561472598	16185.39430758603	85041.31784459013	39793.73177268628	101732.71792830728	18871.91104646911	15188.03094906654	22376.014074547867	21760.55182829116	31412.46789494969	7891.5949093337895	100919.23804061845	13114.395413287628	20428.570961482048	
FineR108	84342.61009484623	10206.62628565068	28056.82384146897	35053.788088120775	14884.771300179318	16187.945148156316	43086.155079618125	22491.582796064184	54865.43901727699	10947.262366157525	48866.73356556075	20591.974495432816	24622.082993767603	23652.63150981758	22590.600842459484	38015.81916772299	17213.67153044426	26759.754711284375	16230.183836583054	11529.783375415815	52367.29607307471	
FineR109	16866.491237612732	42021.781928976576	23882.643053127616	23740.20211130669	25968.616163647275	37901.23369941804	12929.645839545248	31631.768833251972	12451.735127931019	12375.043985606775	18178.876950757916	46861.16511225705	10855.668190721968	13450.97106830558	23478.24779342422	16857.067895173546	42595.8939165194	22334.16673800888	90475.64124297242	232919.2926139966	31442.78215797156	
FineR110	179537.57205611316	41029.15992818126	128502.22416965918	176325.50550011455	14072.166294850174	14661.846072408605	16882.34925511873	22157.90483800356	20482.733021223175	15171.341770444562	9261.613277466777	28999.880222634285	10022.755158157799	15028.158960302742	12436.332110643862	16475.998531303474	23936.768917971574	20385.503356878104	87179.31674665066	26043.796035283554	13056.561448159404	
MaxRout:	7430961.538461538	FineR:	102	FineC:	24

