	CoarseC0	CoarseC10	CoarseC20	CoarseC30	CoarseC40	CoarseC50	CoarseC60	CoarseC70	CoarseC80	CoarseC90	CoarseC100	CoarseC110	CoarseC120	CoarseC130	CoarseC140	CoarseC150	CoarseC160	CoarseC170	CoarseC180	CoarseC190	CoarseC200	CoarseC210	CoarseC220	CoarseC230	CoarseC240	CoarseC250	
CoarseR0	1369.190169396651	1136.8125314499994	1822.980767809409	1627.7656392643948	1666.7946649999265	1686.0101536304364	1617.922381669735	1597.0610604963829	1787.4809504206667	1700.0251849874228	1701.556937820539	1578.8880226603094	1487.7978283838613	1553.8001778410635	1510.8728953713346	1603.4153904626153	1547.7735828954587	1519.2800906504763	1499.998466024386	1554.8518733792914	1610.997096540472	1456.0812476978185	1537.9514252572512	1470.1346441674543	1556.4449157148508	1454.696331879649	
CoarseR10	4135.109521099982	3692.7301709304534	3562.235995776302	3740.1454168980304	3027.6217631744757	2791.1730528250832	2972.4976829808356	2866.474190898082	2865.1489634728046	2540.8004161091962	2676.999888740543	2425.1242853141293	2362.1902770186775	2706.265387100477	2508.7900561409015	2439.0641063152416	2427.629406121382	2286.96729059365	2270.881929767673	2248.4342789406146	2285.6451540999096	2303.7599008943075	2492.7179743639063	2337.0249179906937	2255.5409036404894	2114.6259562319506	
CoarseR20	7487.875723049771	6794.385218798794	7208.6171780061	7914.762751842068	7541.986726654799	6490.6501325060835	5812.761894937094	6437.772606736804	5876.243622524569	5451.018491578935	5416.066776354056	5653.377020223794	4960.916082667929	4352.203344198025	4319.233853231771	3878.6451411583403	4243.533914332065	4455.152536235286	3756.449314522394	3795.1883231915585	3923.5493529213845	3873.295288686151	3843.452010243616	3593.8398227572793	3643.4786575747185	3392.116816163973	
CoarseR30	28987.13913746147	22052.57421496839	23223.181320087133	14754.761530413396	15401.57521964346	14128.317049252335	13015.440950460385	13636.580144060485	14540.956024550173	15566.946937797702	17967.408629207923	10870.940226001785	9666.932754129331	11072.263625426538	11654.712632577834	8978.504028821906	11276.071631630988	16921.7157578558	10325.708444921955	12200.303196668496	9693.177136537628	12573.11298418722	10587.50428257994	9399.847389647302	10988.258176914907	6349.677065679106	
CoarseR40	688964.2869950155	98598.90133139807	200596.00199320918	77567.1650713099	44802.89127676477	110136.96264300126	25181.247078391305	48729.14632885153	845832.279559308	56383.37631458382	95800.47935728075	68651.1332389455	43269.53921895944	164061.63204720753	42383.20438195121	38710.73605812655	83237.11215586525	37679.04111379267	93258.63654944225	146058.7151606328	66787.35339018518	193411.4129582998	33400.45175808306	109614.23959486885	133423.06775186092	21463.816359807814	
CoarseR50	15681.486244627666	15686.528115748477	13941.280186652792	21344.606911961153	17854.30859927021	14741.64199280781	14480.338303295368	17405.640097793774	27582.739770026983	23216.31258734193	30393.44129362592	26701.058493814104	25756.799223609603	29295.815000010494	15631.773714019964	17428.149455686347	22515.141792588176	23556.611705418116	22677.269752853023	20337.26894190163	25906.088514053918	19050.117670647527	17028.361488748484	30793.23658101137	22801.25143205111	24150.024418833138	
CoarseR60	8765.861459427088	10290.966525026139	8255.871279831084	10381.295144267446	9105.866936173834	9500.640707104361	7929.691571445198	7995.366562537026	10690.690690690692	10210.387796177689	10561.38587757075	8878.71584325165	9043.461188376288	9485.263835314016	11716.493228556234	12940.686639240317	11858.44311586567	13156.125434568257	13150.313068259944	13325.993128537379	15541.435958364886	11646.648061586966	15850.873643968458	11474.46672521892	10923.8010330205	13616.607433541456	
CoarseR70	7895.252989046272	6261.917720280564	7530.890576566717	6839.746585006264	7632.403636947294	6266.529483108707	6977.825692970261	8660.889249359014	6899.47247554403	7315.93927584925	6692.206500189434	7967.802468854761	9967.035999787584	7492.10704227187	8617.325809432543	8348.466788363112	8873.40322601659	9385.973490530796	8439.069862936052	7740.305736115722	9467.638320083513	8719.542240594428	7687.778730837288	8447.08866582605	9644.659808021663	13341.193422466597	
CoarseR80	5771.733864345222	5642.798276057105	6396.329838887926	5467.944412146376	6421.419575284072	6128.2713956413845	6431.646252797262	6784.024532730729	5955.374575383384	7175.603524556879	6616.52091815088	6818.059433701047	7420.939840914356	7488.510514306198	6314.6893804622405	6797.985649875387	7680.750302693207	6587.29027185339	9147.077627177943	7808.205830171005	7826.873403662019	9222.454649979685	7347.245391707379	8447.294091346286	7437.046631639122	7601.425334720653	
CoarseR90	5640.557325092514	5244.608555650138	5162.101697604532	4613.754171022816	5501.183617903525	5343.365343536226	5633.728310537179	6369.1215707768315	5411.027043846163	5664.897098546192	6267.830687806536	7155.21925857428	6184.36621883659	6702.142641426168	6124.428383530838	6323.121246708806	5995.539099409562	6659.419178564793	6462.280235445599	6556.178015317733	6937.8491979351475	7204.99740654991	6097.764761271276	6786.583625107948	6455.492540208965	8229.172743884803	
CoarseR100	4749.790763256464	4497.677221525284	4965.720469793615	4594.621070828481	5253.9671246765365	5074.645128148593	5661.108333679594	5219.097677611693	5533.850719291849	5356.601101577011	5584.465172454949	5507.89095324282	5197.05506677656	5193.048420600649	5533.17638042944	5817.48139042955	5687.655329652307	6722.8497964839735	6121.62813001096	6251.078305027737	5854.87646665192	7232.504879138083	6578.678686684397	7585.345790299935	6579.481015521796	6779.436492599916	
CoarseR110	4682.0346669700175	4423.853905882548	5056.90100670932	4507.586150973348	4524.011526972919	4733.072765188858	4766.283810705533	5579.796488173293	5117.684814396209	4879.927207875362	4807.576157075483	5241.49677699491	5338.788662891075	4993.825322172279	5601.275838797111	5787.0429228462945	5058.291445068386	5313.667083362647	6416.529054030521	5308.0858753759385	6516.846926083444	5867.816151642089	5650.844652303647	6016.9001897351845	5552.804663155232	6207.975539946002	
CoarseR120	4339.885737242898	4253.7579016641885	4687.72178691532	4194.100126297316	4199.751377556945	4895.257937079533	4702.821803946222	4998.460616874	4251.349758259745	5469.869444488545	5228.280836585491	5208.721992207343	5296.081792146368	5251.716014756872	5268.207163650785	4964.8368044848285	5958.861145935933	5451.746021304332	5959.515691599501	5899.127538985125	4990.800618001434	6111.281531054195	6259.177894772392	5888.830798761402	5658.628051163253	5804.66337704369	
CoarseR130	4066.7691561080483	4143.687051660354	4266.893181246977	4214.506362732914	4318.359844797123	4272.238379827786	4464.883387309219	4593.551615813545	4728.619055799453	5035.54190246891	4675.246759111078	4913.768196081772	4369.9836019836075	5184.122855115583	5425.187592426925	5446.724803547121	5220.852103494075	4770.05951722654	5138.967753292986	4757.325521839535	4958.935871011047	5004.210607360724	5258.451313984856	5737.0810612913665	5760.273756416717	5382.507439576671	
CoarseR140	4268.535985451989	4086.45333387715	3844.446737880508	4335.725042023014	4392.730618725718	4580.8047058662705	4363.684963858842	4465.707972698457	4578.164779746212	4377.18215351565	4355.721381514336	4174.809295760608	4201.471524037806	4659.888096367043	4432.251535910821	5147.642449409984	5170.134262032168	4793.509246579117	4674.413795715708	5117.300278680799	5955.299534449632	5037.725469021878	4722.336078341133	6111.569102952206	4801.327423398051	5640.00167003155	
CoarseR150	3917.490826154357	3920.180774514379	4504.298574437896	4166.059726328655	4162.521911625522	4075.754368267725	4202.110439776502	4115.139273743399	4298.179198111458	4395.093426993721	4471.852582271752	4310.321118673592	4538.799943106064	4300.560618828073	4799.317508952278	4670.036223346214	4798.354923625607	5009.667778580559	5367.742899287178	4901.600817198768	4569.816007703486	4843.736682856388	4941.411668660475	4626.706101869528	5021.014230095402	5124.360999084896	
CoarseR160	3894.953619243429	91348.27389598145	111341.19970368136	144573.27847422907	160965.03097082587	448072.302283352	635006.2377355595	303114.85809682804	151127.08159866778	102116.4624883963	83878.02821772904	68090.94958664062	52236.63206002483	47304.18105943808	47586.28217705498	38598.804681487716	34690.16341392645	31663.064535116173	29070.689125489145	26606.364090657902	24698.95629070441	23499.429199424056	22065.668959671963	21652.95621568975	19697.330244112844	18679.79842086985	
CoarseR170	39502.9099818135	40667.62681389732	44521.37044859232	49181.04664027755	56419.44060055352	70440.78166947619	82220.40650170103	113907.92365412701	158238.05479819427	356837.23848317086	1377111.205535996	323191.38594939956	300510.87747802876	124067.9902902227	87260.85525405064	69755.08047412024	66271.81704416452	51172.87017411223	44906.04572519258	39539.00100375086	35746.69740464612	32485.86915523073	29724.76103687605	27002.88168433524	25578.106219935067	23897.980858941784	
CoarseR180	27676.57695804836	28590.741008043882	29716.63785690088	31462.818538942098	34162.81058459003	37585.91924894663	42451.95784291099	48049.05596367385	57586.65095741298	67187.0208188311	84667.54197501393	111636.41239366647	188249.41810608844	406981.96143631695	5.597041818181819E8	285194.77475063887	159077.66990291263	114731.8599591327	86345.90286875426	65710.662998494	58052.22818877538	49668.07724598172	42568.18296825044	38545.61764869063	34899.26868878547	31702.845779379	
CoarseR190	20839.949801806804	21232.3175450778	22684.579046694522	23718.45771098086	25113.1532611756	27089.43144643837	29515.92374481474	32160.80861553503	35585.82073810001	40468.87458524686	45138.22483981533	52363.7260750491	61955.55507194253	85485.67910156806	96774.72386058982	145395.27224863676	236584.14527096372	729629.81610619	492279.1669695428	221592.09236199627	134865.96884927244	95565.24373169524	74471.65171618371	61907.17196153855	52425.1691062293	45733.3453957888	
CoarseR200	17016.618373956026	17575.961902376017	18294.53932640793	19096.627585657665	21122.302004470155	22202.601952162047	23677.84555866981	24514.425649562992	26567.23161624289	28833.59400495294	31666.666666666668	35045.79909843877	39023.543927031154	44510.10247547443	51554.0513697363	60585.56539280511	76859.68838346018	102263.38885453703	135897.79117392263	151114.33029318732	674730.8915172326	703697.3180076629	229065.18110175084	186864.75414144882	93248.80617225192	76338.07426939892	
CoarseR210	14911.914993133898	14760.28939373847	15253.04633016937	16353.945520706675	17116.347824526074	18244.580821436364	19029.949123315324	20206.093564232528	21537.722726369477	23019.64326786319	24809.68759780992	26928.963564631198	29825.770098493966	32256.683020714157	35733.74397037678	40031.98968722018	45729.443237359024	53149.01427516739	63757.400141229926	77889.8510434754	103675.24929542605	159132.4872785237	261958.8459949414	1748695.5205811139	463028.28056311957	189028.3501409515	
CoarseR220	13135.508681486108	13420.308021963305	13897.921119796923	14515.585366317979	14969.121892135607	15913.690023701272	16685.917619848515	17355.987306792387	18310.692412000983	19463.51570522356	20708.219373800872	22180.603361800724	23821.835947505755	25683.073910974723	28002.703195722945	30534.32132132132	33711.23375762397	34840.85790636036	42508.492231151744	48917.75783193541	57235.06031610471	70357.80569268978	90509.72864946484	122622.61559737839	194515.16758348656	462153.95835975866	
CoarseR230	11963.98240462742	12280.168280926486	12522.877245349395	12971.971044614984	13704.852300188388	14023.523321745777	14668.265241282455	15350.413779682012	16326.7449765478	17148.571704570546	17974.25568651924	19020.333770310765	20298.595920702093	21636.019788106125	23276.579802431326	25094.116859843252	27222.90371251538	29603.22072574256	30770.624678254713	36370.22856023723	41116.90576291494	42908.682305855764	55107.25670230431	66560.65490882237	83221.31571463968	113362.24466687803	
CoarseR240	10938.832901329466	11238.702662293053	11581.008209755211	11826.021945121613	12278.869481753236	12738.069367943823	13264.381382739348	13988.133586440616	14592.733783930971	15224.798115012887	15991.11225982065	16820.646208344384	18282.361222787604	18809.931907590464	20050.106791409515	21421.401205356753	23037.336789085042	24847.465799472506	26917.839504410633	29491.81461493363	32491.576527118683	37586.84119828395	40810.38397983848	46675.61519126877	54952.003713272716	66153.09544895383	
CoarseR250	10221.914079011949	10386.991143856516	10659.167446389441	10972.692842770912	11454.889118046394	11479.721678999611	12175.761174341165	12700.908379722805	13299.524825674665	13832.731020818168	14488.295935358541	15222.008559869986	16002.668838933556	16801.95515418782	17943.061337504794	18122.092034154008	20153.074806992634	21933.903984275694	24026.051573556088	25008.681389728034	27113.6582672366	29762.93010110881	32988.33046631642	36743.618726622546	42397.64820417025	47883.64385826819	
MaxRout:	5.597041818181819E8	CoarseR:	180	CoarseC:	140

	CoarseC50	CoarseC51	CoarseC52	CoarseC53	CoarseC54	CoarseC55	CoarseC56	CoarseC57	CoarseC58	CoarseC59	CoarseC60	CoarseC61	CoarseC62	CoarseC63	CoarseC64	CoarseC65	CoarseC66	CoarseC67	CoarseC68	CoarseC69	CoarseC70	
CoarseR150	83056.06390097023	4233.786327772571	4282.343243846301	4592.003605697356	3945.3430616570145	4041.625145991448	3796.8682990042744	4068.014555600201	4598.3576364859355	4150.755409504897	4718.61448659605	4106.340326443769	4039.4792972772816	4261.972417001427	4157.830372621344	4307.531972495631	4100.007600355181	4257.659758998839	3901.7165263318147	4282.883446277406	4062.1337577257455	
CoarseR151	3982.797209271333	4679.494803170224	4034.0607586099914	3982.661503386011	4032.3326651146253	3857.0887889550445	4093.8006453082785	4321.252785844901	3947.8678888023937	4283.378531780866	4497.714399169074	4446.314908037668	4298.4835791767	4164.922159317838	4302.083017419445	4193.97302069272	4457.216490282007	3979.6942393305985	4089.4684282728995	4241.862804504866	4225.960076647022	
CoarseR152	4512.897200313179	3993.786728533394	4150.156062940461	3628.027355765135	4253.318679035737	4124.215452962573	4051.5933232169955	4353.808224559246	3821.3186015904635	4183.811731146372	4278.918088247582	4481.260061843351	4033.7679245285854	4193.529780312472	4357.0688083729665	4441.614302965304	4138.049553374826	4371.2481059347765	4074.0455687406925	4481.610310433592	4580.82375542593	
CoarseR153	3781.380581975004	4273.67066505367	3852.124601355404	4093.452115469428	4155.520755449638	4042.991727828221	4042.103396538482	4158.016633883541	4016.8300835811747	4019.2274064142644	4447.615700772616	3960.232428993801	4216.229794430514	4599.818501302555	4358.940407275468	3943.674984629064	4355.808410855693	3850.478018081505	4180.191203880484	4191.675021440177	4218.546834430373	
CoarseR154	4234.5378507100995	3922.340512200762	149283.47430042076	146490.80785065956	137944.35122846183	134024.4654226724	128241.23950818139	114520.24354481777	119844.08231777327	4057.618810579145	4105.556993467436	111438.89457600357	107448.56334293654	105101.315709803	101555.86510945187	4486.015755078447	95540.84851741725	93334.536468758	86027.15418111348	88883.43609084818	86978.77703140651	
CoarseR155	212287.29553205016	198007.95886459821	185547.1354956047	179747.15314896585	171935.95367608353	165873.87242540662	155025.27520335384	149206.14279914746	144652.88817187378	141163.27539494177	132579.17892198294	172168.98312151403	165100.53309404204	120559.42004040701	108710.62162652095	105382.00724299903	110102.83802034426	106713.1504579739	103075.52842055132	100504.47586379989	97688.68369012701	
CoarseR156	400324.1753744577	273412.4371284865	250189.56698460408	244703.0898395588	226024.39626191283	209988.44514488342	201024.3906619588	191300.2877312942	179736.8469448744	174398.6591348298	165962.4132897283	159268.43833980293	151224.2824446369	145722.407362341	139778.31632349265	137380.67697752145	128592.50414099541	124600.66370272233	120878.47187901552	118513.95162950673	112984.97380808505	
CoarseR157	500050.0898587933	443511.6910910926	391338.02939502493	361037.34606405714	330145.10209152097	316684.7275700909	269933.539862232	252717.0997757024	190449.19707552713	230424.78974217566	217815.5617772549	203002.9563726834	188641.26979008803	181483.03100412167	174845.52408270587	167539.25778342664	156643.35759781618	153648.24963386403	145316.7798697172	141089.07486481537	123836.38704649606	
CoarseR158	1564627.0945220194	1226157.4208477964	836518.0134921774	729648.7859824781	598890.2641959076	519928.2867460211	467983.3471104227	390839.84772934427	300282.8039136845	330806.52022255876	309220.292897009	280166.41614360973	267504.67551040987	240719.31257528506	235887.2272833828	216759.45775301763	198843.07726899532	194032.87586543863	180919.66848294373	176990.2231758616	164888.54026637145	
CoarseR159	1457553.6744419362	1577254.8567397438	4810141.93494993	7573602.136529443	2553754.04075896	1920516.9088507264	1362232.7166276346	932969.7013441119	689856.8615822559	601868.0619497409	510994.75658062304	452771.79249760736	386928.87730404024	357842.71666738414	319649.5318120658	299629.9871299871	278762.7391356399	255106.07873298012	237529.9860473086	224271.6341802524	208757.63778850084	
CoarseR160	477680.4563025972	532829.481947202	602186.8619203407	809801.1370779611	2.677604164738547E7	1241449.731372675	3316725.244551227	7786069.808027923	2.2814481321274087E7	2372199.7546514007	1820684.1031755994	1184057.666408195	819131.0878342133	679249.297752809	553444.7506699344	495996.7616524971	425586.5524901574	390943.81901427417	341140.30387422006	314414.0877097997	298791.7303329166	
CoarseR161	288659.6161144067	316200.62027206644	348894.2058195247	598175.7865937073	418405.5559574622	497537.40408107085	584460.6266988673	667813.5064935065	893820.2592666986	1103624.3753576197	1757247.934888241	2797601.55645785	6826663.481953291	5289712.171052632	2271002.903213151	1538496.5722484987	1061295.1063049852	736257.4262461852	621819.1736105146	538269.6283488575	484236.5580609831	
CoarseR162	206592.55582237197	230821.88451065193	231435.65814929878	246047.8500334899	274829.08744341193	281788.3859181211	311619.7436437588	338449.19663755124	388277.75871003343	431270.27431048657	504648.01259346714	578475.8339347285	696876.2677484787	790328.947368421	1181717.1750255886	1313311.490697357	4492405.510585305	1.9182989036544852E7	5061353.28659071	1747256.8005083362	1434186.3207547169	
CoarseR163	171170.00571728047	171368.15426701712	180737.90069138908	188103.64796902693	200998.05725506914	215764.82348351862	220045.28822735493	237805.35262714245	258647.21426998457	283449.09327318036	305404.0151097152	204484.77096292522	350853.6170679537	404355.1241712552	442065.1032471022	497475.7512156782	612110.4710483802	850890.1629896709	1081839.8797783414	1319560.2739412263	2611202.620008159	
CoarseR164	136824.85649254906	141827.11213973453	148193.32795973937	153118.56382666432	161565.49261666348	127042.3404569682	172434.89665491847	185928.29093171243	200210.26009544276	205545.35170527568	214939.03320118744	238699.5971513738	246218.15804141836	268472.196768523	295100.6557242258	302724.4228944872	346551.2882399083	367982.9435915173	427064.3928693558	487773.1205161948	597329.6146888192	
CoarseR165	115024.66357793812	122179.02719330101	124884.27411783714	129031.8875163238	134260.87568699048	139051.32192846035	144267.55095764578	150708.3777670698	155753.02640384334	161130.41863501183	170427.5859606102	180845.2727944497	194140.45193334576	202482.9322096213	213386.02060396058	223462.00596046125	241576.5902535297	257192.5050159568	284766.3159359639	291729.74114892207	336840.13377533265	
CoarseR166	102134.3378725614	104469.91459627329	108356.24097850034	108961.80409034582	113181.69142585137	118314.56738123763	123290.34905823397	125302.97323517663	130188.30238932442	133201.6825538247	140298.86887388583	144632.13480870027	152061.62680495804	161352.2990519024	164735.35704811008	175674.65748158627	186693.42292758814	192765.15355966968	202607.6900715405	219337.62570046826	229830.65368858227	
CoarseR167	90076.23018812966	92278.17846904228	93820.52211807403	96137.03280815069	99423.67834639619	101607.4239314714	106674.6545056658	109676.16321845278	112316.1905964126	115095.78176307149	119773.36529665963	124838.61811694104	128937.90826003703	134809.60460801574	138784.29099270035	146463.6873518782	148335.49891720805	156092.03596537115	163612.27412988877	173095.2236340225	180952.36901240368	
CoarseR168	81399.08936632922	82881.01180054294	86294.94941811821	85990.39520381224	89606.77367368489	90675.30905798201	93224.31127893613	95912.64730074603	97525.843302339	101313.82705479451	104007.33174067056	106845.44931482122	111365.9611249728	115724.56719214632	117468.41047774967	121693.0892568071	126889.91767939396	131814.55680497934	135583.4005026971	142036.36409058547	144627.69025733892	
CoarseR169	73296.00389560605	75207.0573949734	76227.13257411531	77762.3099636064	79649.89840042187	81311.5314487531	83639.30153188636	85184.34032059186	86783.57391737183	89426.99567564155	91182.16276046695	95213.17042678111	97584.11129668211	98826.2991994198	103135.02091281385	104515.33383840897	109832.34733489853	113498.77569489075	122872.55992695775	120997.3861982734	124811.56157643057	
CoarseR170	67220.9324751952	68818.95800449756	69681.95305145784	71394.20048034383	72526.80194521758	74377.43105109881	76321.7394946176	77853.52884682955	79189.51684092826	80292.42378826214	81981.60067059589	84330.03174300103	87126.67692136965	89110.66611817478	90498.03503022662	93351.17241789114	96775.89325593693	97986.28271670813	101752.13991962034	107258.19629381677	108237.3139497284	
MaxRout:	2.677604164738547E7	CoarseR:	160	CoarseC:	54

	FineC0	FineC10	FineC20	FineC30	FineC40	FineC50	FineC60	FineC70	FineC80	FineC90	FineC100	FineC110	FineC120	FineC130	FineC140	FineC150	FineC160	FineC170	FineC180	FineC190	FineC200	FineC210	FineC220	FineC230	FineC240	FineC250	
FineR0	114085.62870141212	4082.5052666502866	4268.0395728712165	4511.004235106918	4202.989957919841	4645.801576402192	4096.105666266592	4383.87721390581	4637.824045686255	4244.745444884117	4482.354856271423	4598.9055947655215	4376.737656879501	4470.837853410474	4536.425542957207	4026.246487057427	4291.758291350083	4664.972555210965	4390.064388907148	4247.963154134503	4072.744610888399	4394.237044679695	4966.767926858829	4136.135202632877	4722.227440621818	4186.765162597633	
FineR10	3970.3402460833427	3923.290237988932	4153.76661015864	4244.029470084069	4476.269709114774	3803.676110312502	3929.4127663715094	4553.504449206106	4118.6609021897075	4153.507655943332	4152.282097883772	4259.04656723008	4329.938356369529	4233.0441076473	4209.7636412888805	4250.790259283179	4691.1090111793455	4363.452756815837	3946.7974016819476	3901.382259546023	4429.612160597812	4679.399941638852	3960.290538725629	4359.9950644376195	4447.230881476257	4497.765273296108	
FineR20	4145.715692023267	481626.1485609087	3513335.3099730457	1159269.1069912536	523216.8302370732	330835.8132491119	259490.2912835634	215908.36754327343	195415.44845641687	170225.73354939523	159676.66053412785	148602.38039920805	137481.75663363285	135064.8898923014	128489.23946047775	123198.48675122441	120701.74305739196	117163.92176840965	111739.37000102494	108706.69793724954	106789.38261125078	105390.64664507007	102704.71622422995	100979.25356750823	99330.89748520611	98933.89418231175	
FineR30	166759.19027040657	249286.24297020564	396987.47485456424	782021.1741415979	9895675.236806495	1128981.554728048	581855.0724637681	421402.02342918	313628.7957498313	272873.620129114	241967.95001507312	221470.69405340034	200759.6745182013	186538.19515176208	179486.83396714003	169307.13421308773	160242.74694816946	150191.66611148408	149259.01280452104	143051.57609902378	138909.2311300973	133526.42823628022	130632.99383465649	128547.67167019677	128550.35591908678	125229.05789070191	
FineR40	133794.5396236942	189008.27136579913	257275.33735285673	361040.8774851864	648846.2051783967	1662433.4140435834	2793342.378559464	1025871.6579418895	614785.4429114177	426102.7348793779	360211.7217652934	320593.83914856263	285650.0904159132	255003.81734339075	225959.51766052208	223665.8938218325	201186.9609806796	196191.4870765606	188468.40429098223	178670.7159796587	176036.32816968398	166318.53674494018	164051.63959718365	157611.62808250936	157610.1965350324	150726.4860545445	
FineR50	119169.0874037312	161148.85399747337	205169.59590612317	278357.00617136294	414203.48473206407	645571.1309127987	1397526.431929387	1.4959691991786448E7	1391706.1927043544	783762.9597762959	572981.4765681044	460195.50551158737	391412.03271890327	336032.81105990784	309500.8116883117	267981.6306000487	253667.76965153794	240860.40368184258	229288.3817427386	214940.507107835	209303.88390951772	197299.42249692313	191055.2194636497	191046.4233347298	179657.7435739572	179661.70713089727	
FineR60	112421.82529497321	139802.3920329869	177876.39681708015	235115.24485485136	312533.58277155977	468811.24196915835	666594.5466002177	1473847.1863445272	7.186311728395061E7	2727783.4254661296	955483.3945917564	627034.745999957	516340.2155990142	455997.65947287256	376787.69630798686	354048.5578500845	325123.807291841	289753.026008255	276260.9860283416	250328.2035418761	242749.02534113062	224630.15119156844	224607.12207341747	218488.53946061435	210853.3329474499	200341.3239105477	
FineR70	103709.89296652556	131940.77853070784	164358.6470619917	208319.8702258845	261660.11361230366	356864.4652871191	546026.4480668952	794081.711530845	1367416.6000470256	1.1315141050583657E7	2141102.7896363903	908885.5294613978	838389.2730573083	574980.8391636033	491370.97210024996	414612.45154486375	369489.7324206596	358191.82980189915	311711.08742575266	303707.7381387147	279032.6069240578	263687.2499943374	250010.31180209585	242427.9181347927	237676.4510190503	228624.56801759347	
FineR80	98957.43976791874	124373.61928635002	153717.31077452155	185718.29285476392	233764.1047742954	299807.03964967	414594.63801228045	628753.0321406913	1067757.6966199202	1984865.516652434	1783337.8905649944	1920291.4491508624	1158815.6173996252	778383.8573188367	632647.2290519811	521663.7893131141	461193.7377069983	399463.4270326711	368563.05141466385	332829.09856704663	323731.36139468086	307140.2885295764	288733.93493562064	278709.56551737356	257780.67061143985	255087.89917293034	
FineR90	95807.7595757297	119444.54293926452	145505.60806394852	214925.49281905504	218836.5587096482	282383.0711114573	359533.17557564005	500221.3490504257	789216.5796486648	1198669.1716904782	3139802.670703357	6650942.052221714	1432595.8512160229	926418.8650355673	799574.0903836627	630185.5097613883	520261.6640850934	460079.1207398961	419561.86679953494	405187.2259135055	357073.151851374	341743.17585764854	310839.7370405833	295579.52325723355	295585.8558636435	269158.5762316263	
FineR100	92091.61167474174	113742.78605790049	138804.80249914224	166435.0255207615	204040.8475101397	258230.5536620465	339124.95613727276	436478.909383725	608434.0932446887	858371.6475095785	2252487.150621118	5548450.148169391	2720594.675665542	1266546.9520443338	887690.8173407753	683554.5782111064	663070.57869736	542495.8987294469	477548.5661652837	426485.54832645506	391709.5916839244	367616.2460198391	351446.8190674428	346429.49065819057	323196.3383697902	291856.6059540259	
FineR110	91460.38701646758	111609.166769735	135649.92762106756	161929.96292928586	197324.6970486732	250038.83863840366	297259.1925997713	413706.4205778235	516936.1806447012	774868.7666145688	1163506.1163919303	2323154.8009930328	1.1374385143081145E7	2669597.8010856565	1256599.5453069177	992708.0838835483	744501.3598111658	581665.1632689879	541823.986259428	486552.4028265589	450060.25226566195	411394.1635840526	385073.85398981324	367374.34745467774	356517.2877484481	336537.46870363504	
FineR120	89806.39505864737	109553.04425067664	132009.18531446168	157660.13976865128	191033.33773348294	226425.46421171963	283249.66267086455	369219.8391762562	496358.8397506166	729435.5037628049	900690.6515052661	1677897.9396955841	4695469.273743017	5927113.938279174	1977308.413445149	1478285.1282835233	879431.1921041859	699609.8931577551	609958.1134217886	566385.1319693894	486113.032549956	458133.6991276201	433371.1893773058	378776.9950906147	361664.4001246494	351141.20964228665	
FineR130	88758.71853194032	107616.24105526017	125699.95279540397	149058.47725626745	180930.88289550203	222425.36499154757	279979.5423006813	338683.92585662496	458566.38008834847	601751.4617150098	812515.6455909155	1313447.2086278775	3945596.964127697	2.280123830121903E7	2938773.565781472	1811283.7998250655	1126402.4864024865	877620.0593184432	697774.1058431481	566166.8000937244	506184.8644874089	476093.25650874944	466716.3740808084	425440.62935524096	397382.0043841622	372700.6295772838	
FineR140	87199.44870769081	104313.80842418576	123105.20079448295	147051.5780959067	176849.16908177116	214547.87243901263	261545.60566637755	343090.948955284	433525.8665868084	547298.0017950777	786687.8658246758	1078941.752634911	1838375.285532995	2.6843251968503937E7	5716833.333333333	1955219.1041554236	1467329.4945455466	945176.7161258764	844588.847941035	658567.5982731198	593426.641282319	552269.4197874204	505822.39045492606	432823.9847715736	432933.6140162288	390727.9170512501	
FineR150	86452.69457837845	103896.20071142058	120659.43835178541	146207.61341961336	169278.2058523138	208854.11432614282	248236.03802956425	312009.1073208849	411085.61590344337	481257.06214689265	640382.9512038736	950513.4940035766	1494709.0083582706	4056365.7682884145	1.995506336088154E7	2585514.924374247	717745.2993997122	945171.8665905569	844235.3292453792	763245.059964982	640636.7152534507	565030.9359740348	539676.3785977585	475522.15140553354	457470.3468737178	432756.3340748593	
FineR160	85243.92084198043	102512.78823311854	120611.93795987949	142765.9056655054	171771.51778764164	198399.52401691317	242994.85592387608	300176.5828561945	367245.59189161763	445770.5701683486	592769.7818166933	950245.8572600492	1333404.8243796898	2209166.863679695	8659943.94618834	4521553.812534145	1794521.527691736	1236603.785663985	943289.8399726505	787453.3655871601	696019.2282286249	592657.2574046801	516299.74339784024	505311.589906353	484966.68814379076	432751.72856652184	
FineR170	84971.33431767696	100813.2192000056	118262.3446608407	142711.82952439776	167035.67816251394	196845.12789447175	242910.55336731867	285982.91447352164	361883.5980490245	453643.4538643595	606911.4661969468	744510.2035567786	1197990.1317831061	1861807.7479504903	2737857.2711375775	4517588.533541341	2103365.30011983	1457984.5704648998	1118039.758361801	872895.6685499059	716400.5737319782	675700.3906933349	607434.3847290796	551510.4350060431	494799.01454275294	466008.9119821117	
FineR180	83802.78164157386	100424.0362495643	118759.9950601021	139429.56342020503	166974.81288831093	192037.3472647986	231449.2380708466	282737.8473749548	336829.8442120951	437737.780198664	578697.6172144507	744448.4399516424	999667.9444674678	1510130.4257095158	3558125.1152215325	1.7959370967741936E7	2551927.1012384854	1928886.7610324728	1171528.7751593	905203.8953324788	786408.3910386965	715616.6228118939	694916.0409720057	551273.9023252715	539025.4401310157	484735.9890891444	
FineR190	83112.92326337818	100383.166185991	114293.09784718756	139377.56885695521	158309.2068675501	186130.66297453071	226827.5849895859	285793.9802802283	341334.6198561219	408188.1948755573	505399.8550268986	662742.6761950571	857746.9108365189	1730746.2396459435	3108021.3154362417	6.6920856647398844E7	3746646.434580044	2093742.5327258264	1297970.8822738277	1020593.8210465095	812546.6651698637	715632.4218122505	715281.1187947642	592019.8912421294	538786.5277260885	484530.6421250784	
FineR200	82029.49354008118	97539.64448147058	114757.18284751334	135616.00199179325	158253.5332809174	184768.26695646616	220955.8415554044	275914.32865731465	323101.9881459799	370269.5576489863	505361.6575241955	662643.6031331592	1363093.4376767867	1509945.575036527	2737689.6551724137	9087369.07378336	3742983.1867563375	2832190.44124841	1775004.8440997025	1168943.495639535	903808.4980175456	785444.4444444445	714929.2037583495	656463.8210092034	551216.151905963	526877.2328944135	
FineR210	80939.45630553724	98415.12468593502	113782.549848275	133950.14923433273	156076.27292673173	184759.718794358	214944.78625678926	258484.47740908645	318949.8113582208	394306.77247378684	495233.95492996334	645311.198366928	857489.9296035569	1345035.1464435146	1883665.2021089632	4259148.933038999	1.6548371926815324E7	3206974.459833795	2280780.531043177	1227634.235304097	1167381.346022017	938327.882667531	736918.6640021384	638646.0420067952	591669.9915175423	526877.2328944135	
FineR220	81741.63034181649	97174.77499063515	113739.48779058641	133252.1362292005	156021.42664144826	183408.15562087728	210997.2767063479	261101.41896195774	306698.51700983354	388127.43321251177	466248.13175651163	597044.884897285	828625.0859500344	1052822.2234354243	1633066.8830252576	2496435.0733390856	4.236239019033675E7	3690779.5918367347	1773709.6230462764	1648464.0009113692	1112371.7349939456	869850.3441228623	811122.3203026481	606480.486271222	606402.0199480345	550970.4191571173	
FineR230	81740.37749814952	95160.53805730905	112137.59715926438	133247.25307715402	152107.1639306261	180463.23786674664	216660.19836136265	255358.41696999682	306608.488789642	359509.8351279437	432854.2176519455	628792.7378311367	799271.6417910447	1151243.904866156	1749117.3162398331	2496435.0733390856	4.295643207126949E7	1.5943926446280992E7	1773973.1428396236	1449024.2375682308	1063255.2362754464	937858.4278768233	839040.5781553539	736298.2726162613	638527.8124000398	577350.7515534764	
FineR240	80052.95376998729	95960.49797981145	112584.09843269372	132556.35477282805	154168.3383001677	179232.8633254223	214864.65502816666	247879.451937303	295287.6695538487	359509.8351279437	457609.8277103762	634240.0811937678	705907.9170582277	930376.3549808614	1633125.0917508893	2497956.3115178724	4347308.6169333635	3686264.942016057	2512993.789359392	1541737.170263789	1290838.1513204854	1289323.7993406397	810682.9445962036	784304.208786146	674228.9681522726	638508.3061242499	
FineR250	80051.55676876899	94812.99561103746	110535.61936975805	128241.10522583958	154115.0097465887	176458.9421132071	207487.55329044955	245004.02740329993	291812.83759907115	334126.44182982366	417412.9979641047	582852.0504859067	648581.348405329	862574.5600954369	1435473.9924558268	1902963.6830158888	5287737.568555758	4.577688924050633E7	3663522.983411422	1907572.3376195186	1224268.8840929288	1061555.2416247753	902029.4594426086	838798.237476809	693490.1735212348	606085.5901141481	
MaxRout:	7.186311728395061E7	FineR:	60	FineC:	80

	FineC120	FineC121	FineC122	FineC123	FineC124	FineC125	FineC126	FineC127	FineC128	FineC129	FineC130	FineC131	FineC132	FineC133	FineC134	FineC135	FineC136	FineC137	FineC138	FineC139	FineC140	
FineR120	1.135957131661442E7	5922042.483660131	7786215.254464885	2.8563519704433495E8	2.2758492935635794E7	2.469703577512777E7	8004811.542178655	8004811.542178655	1.1850306356018802E7	4002405.7710893275	1.1850845116469147E7	3405664.532800846	3405664.532800846	7801309.616677875	3951229.899155083	2964268.7078307094	2964268.7078307094	2371984.986704848	2372092.3517382415	2372092.3517382415	1829983.2139589183	
FineR121	5793400.719496353	3945777.324077855	2.2742039231071007E7	7782449.932885906	2.2738801960784312E7	1.1844084967320262E7	2.4690865843270868E7	2.469703577512777E7	4777813.859591299	1.1850306356018802E7	4777813.859591299	5925153.178009401	3404988.4902225616	3951229.899155083	4706838.162486811	2645570.053378348	2964268.7078307094	3370585.1107107573	3906409.280711207	2163351.1023240197	1976654.155587373	
FineR122	5793400.719496353	1.135957131661442E7	5920353.78803349	2.2742039231071007E7	5920353.78803349	2.2738801960784312E7	1.0E9	2.4690865843270868E7	8004811.542178655	1.1850306356018802E7	5925153.178009401	5925153.178009401	7801459.706713306	2.2797970125786163E7	3951229.899155083	4706838.162486811	2964268.7078307094	2371984.986704848	2964268.7078307094	2624623.0762266885	2624684.7083314476	
FineR123	4695436.669906057	3945777.324077855	5920083.537581699	2.2742039231071007E7	1.1843545045965271E7	2.4690865843270868E7	2.4690865843270868E7	2.4690865843270868E7	2.4682354193273734E7	2.280123830121903E7	2.280123830121903E7	3951050.569072446	7801459.706713306	2645391.9689710243	2645391.9689710243	2964134.355828221	3369274.0585774058	2624623.0762266885	2371984.986704848	2624623.0762266885	1976654.155587373	
FineR124	2642868.62977482	3945777.324077855	3945777.324077855	3403213.11186759	2.2742039231071007E7	8004811.542178655	2.4690865843270868E7	2.4682354193273734E7	2.280450983477577E7	2.280123830121903E7	5924883.892068683	2.280123830121903E7	3404737.6952895573	7801459.706713306	2645391.9689710243	2964134.355828221	5817329.019961881	5817329.019961881	3904590.7744107745	2624623.0762266885	2624623.0762266885	
FineR125	3945596.964127697	3945777.324077855	3945596.964127697	5918395.446191546	2.2742039231071007E7	8004163.053983157	2.46761877394636E7	1.0E9	2.4682354193273734E7	1.1846385652973635E7	5924883.892068683	5924883.892068683	7801610.146682816	4706808.572820263	3949922.5947124558	4704898.961207597	3904667.2504378282	2624561.5067686876	2624561.5067686876	2624561.5067686876	1976564.7163120566	
FineR126	5790327.205515036	4693503.441574217	3945596.964127697	5918395.446191546	4002081.5269915783	1.1839626762002043E7	1.0E9	8004163.053983157	1.1846385652973635E7	1.1846385652973635E7	2.280450983477577E7	5924883.892068683	7797829.432337907	1.141215846456693E7	4704898.961207597	3949922.5947124558	4704898.961207597	2371200.040908161	2371200.040908161	2624561.5067686876	1976564.7163120566	
FineR127	2958354.124132299	2387346.169686985	2387346.169686985	3402287.081058872	4775472.279429937	2.27256E7	1.1839626762002043E7	1.0E9	2.46761877394636E7	1.23380938697318E7	3.019222083333333E8	3.019222083333333E8	7797829.432337907	7797829.432337907	1.141215846456693E7	3369215.5893978146	3369215.5893978146	4704898.961207597	2624561.5067686876	2937503.2938076416	2937503.2938076416	
FineR128	2958354.124132299	2642114.874413092	3402035.9281437127	3402287.081058872	5918395.446191546	1.1839626762002043E7	8003268.157967412	1.1839626762002043E7	2.4684696763202727E7	1.23380938697318E7	2.278473466981132E7	5922923.344235486	3.019222083333333E8	3.019222083333333E8	4704869.064047406	4704869.064047406	2963153.4764826177	7615817.238207857	3902773.027201724	4640093.652445369	2355287.5487646293	
FineR129	2641936.306022888	3944291.6751752775	2642114.874413092	2990606.997265081	4775065.749361456	1.1839626762002043E7	8003268.157967412	4854636.934673367	8222562.269503546	2.278799921352733E7	3.0342712565445024E8	7797979.14424112	1.1413801102796376E7	7797979.14424112	4704869.064047406	5814534.711075441	5814534.711075441	1.1037450495049505E7	3902773.027201724	2623574.067366896	1975910.529187125	
FineR130	2641936.306022888	3402035.9281437127	3402035.9281437127	2667539.952131087	4775065.749361456	4001309.928196631	6042880.90520388	1.0E9	4854636.934673367	2.278799921352733E7	2.278799921352733E7	7797979.14424112	7797979.14424112	7797979.14424112	2.125386211954529E7	5817924.821840811	5814534.711075441	7615817.238207857	3367963.3912487654	2623574.067366896	3902773.027201724	
FineR131	2641936.306022888	2642114.874413092	3402035.9281437127	2990606.997265081	4775065.749361456	4000862.449937854	4001309.928196631	1.0E9	4854636.934673367	2.278799921352733E7	2.278799921352733E7	3.0342712565445024E8	7797979.14424112	2.6843251968503937E7	2.125386211954529E7	2.125386211954529E7	5814534.711075441	5814534.711075441	3902849.1379310344	2148860.6609056857	4640093.652445369	
FineR132	2957239.9938738	3944111.2472766885	2386752.9862426887	2176781.6091954024	4000862.449937854	8001724.899875708	3443421.3403041824	2.4678528534923337E7	4854250.230376141	1.2335011068539804E7	2.278799921352733E7	2.987107319587629E8	2.278799921352733E7	2.987107319587629E8	1.2839894107221976E7	5814832.012042147	2.125386211954529E7	3902849.1379310344	3902849.1379310344	2937513.76146789	3902773.027201724	
FineR133	2641936.306022888	2386752.9862426887	3401109.9630129747	2990210.5263157897	4773879.1199736325	2667539.952131087	8001724.899875708	4001309.928196631	3443421.3403041824	8223340.71235987	1.2339264267461669E7	2.987107319587629E8	7794349.656935289	2.6843251968503937E7	4702930.194805195	2.125386211954529E7	2.125386211954529E7	3367904.7369950595	3367904.7369950595	3902849.1379310344	2937513.76146789	
FineR134	1838375.285532995	1838375.285532995	3401109.9630129747	2176781.6091954024	4773879.1199736325	4000862.449937854	6042880.90520388	4854250.230376141	4854250.230376141	1.2339264267461669E7	1.2339264267461669E7	6165380.957446809	1.1405531496062992E7	1.1405531496062992E7	2.12641471559633E7	5814832.012042147	5814832.012042147	7610296.95298135	4637770.172910662	4637444.302176696	4637444.302176696	
FineR135	1590908.8412959913	2386549.6415918265	2386549.6415918265	3401109.9630129747	2989926.046343603	4773879.1199736325	6042000.8343763035	4055113.1098201163	8221285.795373918	8221285.795373918	3.001834248704663E8	8221285.795373918	2.682412037037037E7	3.001834248704663E8	2.12641471559633E7	1.1405531496062992E7	5814832.012042147	7610296.95298135	1.1025400304414002E7	2936243.7281435304	1.1025400304414002E7	
FineR136	2641182.6098850993	2386549.6415918265	2386549.6415918265	2386549.6415918265	5915896.322778345	4773879.1199736325	3442444.2265406786	4853443.699731903	4854250.230376141	1.2336180579216354E7	1.2336180579216354E7	1.2339264267461669E7	3.001834248704663E8	8223340.71235987	2.1223479853479855E7	8439382.609962132	1.5493262299465242E8	1.1025400304414002E7	7610296.95298135	7610296.95298135	3335428.5878763455	
FineR137	2158600.603734208	2641182.6098850993	2386549.6415918265	2000269.1962436128	2407166.181969256	3442444.2265406786	2407166.181969256	6042141.337227495	4853443.699731903	8221285.795373918	1.2336180579216354E7	3.001834248704663E8	1.2339264267461669E7	1.2847028824833702E7	2.12641471559633E7	2.1223479853479855E7	1.5493262299465242E8	2.1223479853479855E7	7610296.95298135	5718488.945913936	1.1025400304414002E7	
FineR138	1985617.4202173243	1838207.3933047755	2641182.6098850993	2989926.046343603	2667025.5949914837	4000090.8839779007	3021000.4171881517	6042141.337227495	4853443.699731903	4055113.1098201163	8219231.162196679	8221285.795373918	4931072.340425532	1.2847028824833702E7	1.2847028824833702E7	8439382.609962132	7611394.297726974	1.102894060536836E7	7611394.297726974	5718488.945913936	7448223.422033681	
FineR139	1985617.4202173243	1838207.3933047755	2386549.6415918265	2176306.623088771	2989529.672824853	2667025.5949914837	3442444.2265406786	4000090.8839779007	6042141.337227495	4853443.699731903	1.2336180579216354E7	8221285.795373918	4931072.340425532	2.68717073283859E7	1.2847028824833702E7	1.2847028824833702E7	1.5493262299465242E8	1.5493262299465242E8	1.5493262299465242E8	4637770.172910662	1.1025400304414002E7	
FineR140	1837774.0543285098	1837941.967826887	1710900.9450679268	2989245.1612903224	2000269.1962436128	2666727.255985267	3442444.2265406786	3442444.2265406786	3021070.6686137477	4055635.956314758	4055635.956314758	6165964.346530438	6165964.346530438	8224120.386144237	2.1233732038123168E7	2.1233732038123168E7	7612492.770767613	2.9272522486104093E7	1.3355238589211619E7	7611394.297726974	1.9970708376421925E7	
MaxRout:	1.0E9	FineR:	122	FineC:	126

