Source1	Sink1	VM+1	VM-1	Source2	Sink2	VM+2	VM-2
7	16	7	16	16	8	7	16	
7	16	6	7	16	8	6	7	
7	16	5	6	16	8	5	6	
7	16	4	5	16	8	4	5	
7	16	3	4	16	8	3	4	
7	16	2	3	16	8	2	3	
7	16	1	2	16	8	1	2	
7	16	0	1	16	8	0	1	
7	16	15	0	16	8	15	0	
7	16	14	15	16	8	14	15	
7	16	13	14	16	8	13	14	
7	16	12	13	16	8	12	13	
7	16	11	12	16	8	11	12	
7	16	10	11	16	8	10	11	
7	16	9	10	16	8	9	10	
7	16	8	9	16	8	8	9	
6	7	7	16	16	16	7	16	
6	7	6	7	16	16	6	7	
6	7	5	6	16	16	5	6	
6	7	4	5	16	16	4	5	
6	7	3	4	16	16	3	4	
6	7	2	3	16	16	2	3	
6	7	1	2	16	16	1	2	
6	7	0	1	16	16	0	1	
6	7	15	0	16	16	15	0	
6	7	14	15	16	16	14	15	
6	7	13	14	16	16	13	14	
6	7	12	13	16	16	12	13	
6	7	11	12	16	16	11	12	
6	7	10	11	16	16	10	11	
6	7	9	10	16	16	9	10	
6	7	8	9	16	16	8	9	
5	6	7	16	16	16	7	16	
5	6	6	7	16	16	6	7	
5	6	5	6	16	16	5	6	
5	6	4	5	16	16	4	5	
5	6	3	4	16	16	3	4	
5	6	2	3	16	16	2	3	
5	6	1	2	16	16	1	2	
5	6	0	1	16	16	0	1	
5	6	15	0	16	16	15	0	
5	6	14	15	16	16	14	15	
5	6	13	14	16	16	13	14	
5	6	12	13	16	16	12	13	
5	6	11	12	16	16	11	12	
5	6	10	11	16	16	10	11	
5	6	9	10	16	16	9	10	
5	6	8	9	16	16	8	9	
4	5	7	16	16	16	7	16	
4	5	6	7	16	16	6	7	
4	5	5	6	16	16	5	6	
4	5	4	5	16	16	4	5	
4	5	3	4	16	16	3	4	
4	5	2	3	16	16	2	3	
4	5	1	2	16	16	1	2	
4	5	0	1	16	16	0	1	
4	5	15	0	16	16	15	0	
4	5	14	15	16	16	14	15	
4	5	13	14	16	16	13	14	
4	5	12	13	16	16	12	13	
4	5	11	12	16	16	11	12	
4	5	10	11	16	16	10	11	
4	5	9	10	16	16	9	10	
4	5	8	9	16	16	8	9	
3	4	7	16	16	16	7	16	
3	4	6	7	16	16	6	7	
3	4	5	6	16	16	5	6	
3	4	4	5	16	16	4	5	
3	4	3	4	16	16	3	4	
3	4	2	3	16	16	2	3	
3	4	1	2	16	16	1	2	
3	4	0	1	16	16	0	1	
3	4	15	0	16	16	15	0	
3	4	14	15	16	16	14	15	
3	4	13	14	16	16	13	14	
3	4	12	13	16	16	12	13	
3	4	11	12	16	16	11	12	
3	4	10	11	16	16	10	11	
3	4	9	10	16	16	9	10	
3	4	8	9	16	16	8	9	
2	3	7	16	16	16	7	16	
2	3	6	7	16	16	6	7	
2	3	5	6	16	16	5	6	
2	3	4	5	16	16	4	5	
2	3	3	4	16	16	3	4	
2	3	2	3	16	16	2	3	
2	3	1	2	16	16	1	2	
2	3	0	1	16	16	0	1	
2	3	15	0	16	16	15	0	
2	3	14	15	16	16	14	15	
2	3	13	14	16	16	13	14	
2	3	12	13	16	16	12	13	
2	3	11	12	16	16	11	12	
2	3	10	11	16	16	10	11	
2	3	9	10	16	16	9	10	
2	3	8	9	16	16	8	9	
1	2	7	16	16	16	7	16	
1	2	6	7	16	16	6	7	
1	2	5	6	16	16	5	6	
1	2	4	5	16	16	4	5	
1	2	3	4	16	16	3	4	
1	2	2	3	16	16	2	3	
1	2	1	2	16	16	1	2	
1	2	0	1	16	16	0	1	
1	2	15	0	16	16	15	0	
1	2	14	15	16	16	14	15	
1	2	13	14	16	16	13	14	
1	2	12	13	16	16	12	13	
1	2	11	12	16	16	11	12	
1	2	10	11	16	16	10	11	
1	2	9	10	16	16	9	10	
1	2	8	9	16	16	8	9	
0	1	7	16	16	16	7	16	
0	1	6	7	16	16	6	7	
0	1	5	6	16	16	5	6	
0	1	4	5	16	16	4	5	
0	1	3	4	16	16	3	4	
0	1	2	3	16	16	2	3	
0	1	1	2	16	16	1	2	
0	1	0	1	16	16	0	1	
0	1	15	0	16	16	15	0	
0	1	14	15	16	16	14	15	
0	1	13	14	16	16	13	14	
0	1	12	13	16	16	12	13	
0	1	11	12	16	16	11	12	
0	1	10	11	16	16	10	11	
0	1	9	10	16	16	9	10	
0	1	8	9	16	16	8	9	
15	0	7	16	16	16	7	16	
15	0	6	7	16	16	6	7	
15	0	5	6	16	16	5	6	
15	0	4	5	16	16	4	5	
15	0	3	4	16	16	3	4	
15	0	2	3	16	16	2	3	
15	0	1	2	16	16	1	2	
15	0	0	1	16	16	0	1	
15	0	15	0	16	16	15	0	
15	0	14	15	16	16	14	15	
15	0	13	14	16	16	13	14	
15	0	12	13	16	16	12	13	
15	0	11	12	16	16	11	12	
15	0	10	11	16	16	10	11	
15	0	9	10	16	16	9	10	
15	0	8	9	16	16	8	9	
14	15	7	16	16	16	7	16	
14	15	6	7	16	16	6	7	
14	15	5	6	16	16	5	6	
14	15	4	5	16	16	4	5	
14	15	3	4	16	16	3	4	
14	15	2	3	16	16	2	3	
14	15	1	2	16	16	1	2	
14	15	0	1	16	16	0	1	
14	15	15	0	16	16	15	0	
14	15	14	15	16	16	14	15	
14	15	13	14	16	16	13	14	
14	15	12	13	16	16	12	13	
14	15	11	12	16	16	11	12	
14	15	10	11	16	16	10	11	
14	15	9	10	16	16	9	10	
14	15	8	9	16	16	8	9	
13	14	7	16	16	16	7	16	
13	14	6	7	16	16	6	7	
13	14	5	6	16	16	5	6	
13	14	4	5	16	16	4	5	
13	14	3	4	16	16	3	4	
13	14	2	3	16	16	2	3	
13	14	1	2	16	16	1	2	
13	14	0	1	16	16	0	1	
13	14	15	0	16	16	15	0	
13	14	14	15	16	16	14	15	
13	14	13	14	16	16	13	14	
13	14	12	13	16	16	12	13	
13	14	11	12	16	16	11	12	
13	14	10	11	16	16	10	11	
13	14	9	10	16	16	9	10	
13	14	8	9	16	16	8	9	
12	13	7	16	16	16	7	16	
12	13	6	7	16	16	6	7	
12	13	5	6	16	16	5	6	
12	13	4	5	16	16	4	5	
12	13	3	4	16	16	3	4	
12	13	2	3	16	16	2	3	
12	13	1	2	16	16	1	2	
12	13	0	1	16	16	0	1	
12	13	15	0	16	16	15	0	
12	13	14	15	16	16	14	15	
12	13	13	14	16	16	13	14	
12	13	12	13	16	16	12	13	
12	13	11	12	16	16	11	12	
12	13	10	11	16	16	10	11	
12	13	9	10	16	16	9	10	
12	13	8	9	16	16	8	9	
11	12	7	16	16	16	7	16	
11	12	6	7	16	16	6	7	
11	12	5	6	16	16	5	6	
11	12	4	5	16	16	4	5	
11	12	3	4	16	16	3	4	
11	12	2	3	16	16	2	3	
11	12	1	2	16	16	1	2	
11	12	0	1	16	16	0	1	
11	12	15	0	16	16	15	0	
11	12	14	15	16	16	14	15	
11	12	13	14	16	16	13	14	
11	12	12	13	16	16	12	13	
11	12	11	12	16	16	11	12	
11	12	10	11	16	16	10	11	
11	12	9	10	16	16	9	10	
11	12	8	9	16	16	8	9	
10	11	7	16	16	16	7	16	
10	11	6	7	16	16	6	7	
10	11	5	6	16	16	5	6	
10	11	4	5	16	16	4	5	
10	11	3	4	16	16	3	4	
10	11	2	3	16	16	2	3	
10	11	1	2	16	16	1	2	
10	11	0	1	16	16	0	1	
10	11	15	0	16	16	15	0	
10	11	14	15	16	16	14	15	
10	11	13	14	16	16	13	14	
10	11	12	13	16	16	12	13	
10	11	11	12	16	16	11	12	
10	11	10	11	16	16	10	11	
10	11	9	10	16	16	9	10	
10	11	8	9	16	16	8	9	
9	10	7	16	16	16	7	16	
9	10	6	7	16	16	6	7	
9	10	5	6	16	16	5	6	
9	10	4	5	16	16	4	5	
9	10	3	4	16	16	3	4	
9	10	2	3	16	16	2	3	
9	10	1	2	16	16	1	2	
9	10	0	1	16	16	0	1	
9	10	15	0	16	16	15	0	
9	10	14	15	16	16	14	15	
9	10	13	14	16	16	13	14	
9	10	12	13	16	16	12	13	
9	10	11	12	16	16	11	12	
9	10	10	11	16	16	10	11	
9	10	9	10	16	16	9	10	
9	10	8	9	16	16	8	9	
8	9	7	16	16	16	7	16	
8	9	6	7	16	16	6	7	
8	9	5	6	16	16	5	6	
8	9	4	5	16	16	4	5	
8	9	3	4	16	16	3	4	
8	9	2	3	16	16	2	3	
8	9	1	2	16	16	1	2	
8	9	0	1	16	16	0	1	
8	9	15	0	16	16	15	0	
8	9	14	15	16	16	14	15	
8	9	13	14	16	16	13	14	
8	9	12	13	16	16	12	13	
8	9	11	12	16	16	11	12	
8	9	10	11	16	16	10	11	
8	9	9	10	16	16	9	10	
8	9	8	9	16	16	8	9	
16	8	7	16	7	16	7	16	
16	8	6	7	7	16	6	7	
16	8	5	6	7	16	5	6	
16	8	4	5	7	16	4	5	
16	8	3	4	7	16	3	4	
16	8	2	3	7	16	2	3	
16	8	1	2	7	16	1	2	
16	8	0	1	7	16	0	1	
16	8	15	0	7	16	15	0	
16	8	14	15	7	16	14	15	
16	8	13	14	7	16	13	14	
16	8	12	13	7	16	12	13	
16	8	11	12	7	16	11	12	
16	8	10	11	7	16	10	11	
16	8	9	10	7	16	9	10	
16	8	8	9	7	16	8	9	
16	16	7	16	6	7	7	16	
16	16	6	7	6	7	6	7	
16	16	5	6	6	7	5	6	
16	16	4	5	6	7	4	5	
16	16	3	4	6	7	3	4	
16	16	2	3	6	7	2	3	
16	16	1	2	6	7	1	2	
16	16	0	1	6	7	0	1	
16	16	15	0	6	7	15	0	
16	16	14	15	6	7	14	15	
16	16	13	14	6	7	13	14	
16	16	12	13	6	7	12	13	
16	16	11	12	6	7	11	12	
16	16	10	11	6	7	10	11	
16	16	9	10	6	7	9	10	
16	16	8	9	6	7	8	9	
16	16	7	16	5	6	7	16	
16	16	6	7	5	6	6	7	
16	16	5	6	5	6	5	6	
16	16	4	5	5	6	4	5	
16	16	3	4	5	6	3	4	
16	16	2	3	5	6	2	3	
16	16	1	2	5	6	1	2	
16	16	0	1	5	6	0	1	
16	16	15	0	5	6	15	0	
16	16	14	15	5	6	14	15	
16	16	13	14	5	6	13	14	
16	16	12	13	5	6	12	13	
16	16	11	12	5	6	11	12	
16	16	10	11	5	6	10	11	
16	16	9	10	5	6	9	10	
16	16	8	9	5	6	8	9	
16	16	7	16	4	5	7	16	
16	16	6	7	4	5	6	7	
16	16	5	6	4	5	5	6	
16	16	4	5	4	5	4	5	
16	16	3	4	4	5	3	4	
16	16	2	3	4	5	2	3	
16	16	1	2	4	5	1	2	
16	16	0	1	4	5	0	1	
16	16	15	0	4	5	15	0	
16	16	14	15	4	5	14	15	
16	16	13	14	4	5	13	14	
16	16	12	13	4	5	12	13	
16	16	11	12	4	5	11	12	
16	16	10	11	4	5	10	11	
16	16	9	10	4	5	9	10	
16	16	8	9	4	5	8	9	
16	16	7	16	3	4	7	16	
16	16	6	7	3	4	6	7	
16	16	5	6	3	4	5	6	
16	16	4	5	3	4	4	5	
16	16	3	4	3	4	3	4	
16	16	2	3	3	4	2	3	
16	16	1	2	3	4	1	2	
16	16	0	1	3	4	0	1	
16	16	15	0	3	4	15	0	
16	16	14	15	3	4	14	15	
16	16	13	14	3	4	13	14	
16	16	12	13	3	4	12	13	
16	16	11	12	3	4	11	12	
16	16	10	11	3	4	10	11	
16	16	9	10	3	4	9	10	
16	16	8	9	3	4	8	9	
16	16	7	16	2	3	7	16	
16	16	6	7	2	3	6	7	
16	16	5	6	2	3	5	6	
16	16	4	5	2	3	4	5	
16	16	3	4	2	3	3	4	
16	16	2	3	2	3	2	3	
16	16	1	2	2	3	1	2	
16	16	0	1	2	3	0	1	
16	16	15	0	2	3	15	0	
16	16	14	15	2	3	14	15	
16	16	13	14	2	3	13	14	
16	16	12	13	2	3	12	13	
16	16	11	12	2	3	11	12	
16	16	10	11	2	3	10	11	
16	16	9	10	2	3	9	10	
16	16	8	9	2	3	8	9	
16	16	7	16	1	2	7	16	
16	16	6	7	1	2	6	7	
16	16	5	6	1	2	5	6	
16	16	4	5	1	2	4	5	
16	16	3	4	1	2	3	4	
16	16	2	3	1	2	2	3	
16	16	1	2	1	2	1	2	
16	16	0	1	1	2	0	1	
16	16	15	0	1	2	15	0	
16	16	14	15	1	2	14	15	
16	16	13	14	1	2	13	14	
16	16	12	13	1	2	12	13	
16	16	11	12	1	2	11	12	
16	16	10	11	1	2	10	11	
16	16	9	10	1	2	9	10	
16	16	8	9	1	2	8	9	
16	16	7	16	0	1	7	16	
16	16	6	7	0	1	6	7	
16	16	5	6	0	1	5	6	
16	16	4	5	0	1	4	5	
16	16	3	4	0	1	3	4	
16	16	2	3	0	1	2	3	
16	16	1	2	0	1	1	2	
16	16	0	1	0	1	0	1	
16	16	15	0	0	1	15	0	
16	16	14	15	0	1	14	15	
16	16	13	14	0	1	13	14	
16	16	12	13	0	1	12	13	
16	16	11	12	0	1	11	12	
16	16	10	11	0	1	10	11	
16	16	9	10	0	1	9	10	
16	16	8	9	0	1	8	9	
16	16	7	16	15	0	7	16	
16	16	6	7	15	0	6	7	
16	16	5	6	15	0	5	6	
16	16	4	5	15	0	4	5	
16	16	3	4	15	0	3	4	
16	16	2	3	15	0	2	3	
16	16	1	2	15	0	1	2	
16	16	0	1	15	0	0	1	
16	16	15	0	15	0	15	0	
16	16	14	15	15	0	14	15	
16	16	13	14	15	0	13	14	
16	16	12	13	15	0	12	13	
16	16	11	12	15	0	11	12	
16	16	10	11	15	0	10	11	
16	16	9	10	15	0	9	10	
16	16	8	9	15	0	8	9	
16	16	7	16	14	15	7	16	
16	16	6	7	14	15	6	7	
16	16	5	6	14	15	5	6	
16	16	4	5	14	15	4	5	
16	16	3	4	14	15	3	4	
16	16	2	3	14	15	2	3	
16	16	1	2	14	15	1	2	
16	16	0	1	14	15	0	1	
16	16	15	0	14	15	15	0	
16	16	14	15	14	15	14	15	
16	16	13	14	14	15	13	14	
16	16	12	13	14	15	12	13	
16	16	11	12	14	15	11	12	
16	16	10	11	14	15	10	11	
16	16	9	10	14	15	9	10	
16	16	8	9	14	15	8	9	
16	16	7	16	13	14	7	16	
16	16	6	7	13	14	6	7	
16	16	5	6	13	14	5	6	
16	16	4	5	13	14	4	5	
16	16	3	4	13	14	3	4	
16	16	2	3	13	14	2	3	
16	16	1	2	13	14	1	2	
16	16	0	1	13	14	0	1	
16	16	15	0	13	14	15	0	
16	16	14	15	13	14	14	15	
16	16	13	14	13	14	13	14	
16	16	12	13	13	14	12	13	
16	16	11	12	13	14	11	12	
16	16	10	11	13	14	10	11	
16	16	9	10	13	14	9	10	
16	16	8	9	13	14	8	9	
16	16	7	16	12	13	7	16	
16	16	6	7	12	13	6	7	
16	16	5	6	12	13	5	6	
16	16	4	5	12	13	4	5	
16	16	3	4	12	13	3	4	
16	16	2	3	12	13	2	3	
16	16	1	2	12	13	1	2	
16	16	0	1	12	13	0	1	
16	16	15	0	12	13	15	0	
16	16	14	15	12	13	14	15	
16	16	13	14	12	13	13	14	
16	16	12	13	12	13	12	13	
16	16	11	12	12	13	11	12	
16	16	10	11	12	13	10	11	
16	16	9	10	12	13	9	10	
16	16	8	9	12	13	8	9	
16	16	7	16	11	12	7	16	
16	16	6	7	11	12	6	7	
16	16	5	6	11	12	5	6	
16	16	4	5	11	12	4	5	
16	16	3	4	11	12	3	4	
16	16	2	3	11	12	2	3	
16	16	1	2	11	12	1	2	
16	16	0	1	11	12	0	1	
16	16	15	0	11	12	15	0	
16	16	14	15	11	12	14	15	
16	16	13	14	11	12	13	14	
16	16	12	13	11	12	12	13	
16	16	11	12	11	12	11	12	
16	16	10	11	11	12	10	11	
16	16	9	10	11	12	9	10	
16	16	8	9	11	12	8	9	
16	16	7	16	10	11	7	16	
16	16	6	7	10	11	6	7	
16	16	5	6	10	11	5	6	
16	16	4	5	10	11	4	5	
16	16	3	4	10	11	3	4	
16	16	2	3	10	11	2	3	
16	16	1	2	10	11	1	2	
16	16	0	1	10	11	0	1	
16	16	15	0	10	11	15	0	
16	16	14	15	10	11	14	15	
16	16	13	14	10	11	13	14	
16	16	12	13	10	11	12	13	
16	16	11	12	10	11	11	12	
16	16	10	11	10	11	10	11	
16	16	9	10	10	11	9	10	
16	16	8	9	10	11	8	9	
16	16	7	16	9	10	7	16	
16	16	6	7	9	10	6	7	
16	16	5	6	9	10	5	6	
16	16	4	5	9	10	4	5	
16	16	3	4	9	10	3	4	
16	16	2	3	9	10	2	3	
16	16	1	2	9	10	1	2	
16	16	0	1	9	10	0	1	
16	16	15	0	9	10	15	0	
16	16	14	15	9	10	14	15	
16	16	13	14	9	10	13	14	
16	16	12	13	9	10	12	13	
16	16	11	12	9	10	11	12	
16	16	10	11	9	10	10	11	
16	16	9	10	9	10	9	10	
16	16	8	9	9	10	8	9	
16	16	7	16	8	9	7	16	
16	16	6	7	8	9	6	7	
16	16	5	6	8	9	5	6	
16	16	4	5	8	9	4	5	
16	16	3	4	8	9	3	4	
16	16	2	3	8	9	2	3	
16	16	1	2	8	9	1	2	
16	16	0	1	8	9	0	1	
16	16	15	0	8	9	15	0	
16	16	14	15	8	9	14	15	
16	16	13	14	8	9	13	14	
16	16	12	13	8	9	12	13	
16	16	11	12	8	9	11	12	
16	16	10	11	8	9	10	11	
16	16	9	10	8	9	9	10	
16	16	8	9	8	9	8	9	
